#Saved Data from the class pulsed_measurement_logic on 18.11.2022 at 11h16m09s.
#
#Parameters:
#===========
#
#bin width (s): 1.0000000000000000e-08
#record length (s): 1.0030000000000001e-05
#gated counting: False
#Number of laser pulses: 2
#alternating: False
#Controlled variable: [2e-06]
#
#Data:
#=====
#Signal(counts)
0
0
0
0
0
0
0
0
0
0
1
1
1
0
0
1
0
0
2
1
0
0
0
3
37
57
53
65
42
58
41
38
32
38
31
38
30
37
28
23
25
26
20
23
19
17
17
18
18
14
17
15
16
11
6
13
9
9
11
11
16
10
14
10
15
14
10
11
11
6
10
8
14
6
11
8
14
16
11
17
17
14
11
11
9
8
11
18
6
10
8
9
8
13
11
14
12
10
13
14
11
14
6
9
11
11
10
9
11
13
10
13
16
4
11
12
13
12
11
7
11
9
8
13
10
9
15
10
11
7
9
15
8
14
12
11
8
10
9
15
8
11
13
9
14
7
10
11
8
12
13
7
6
9
19
11
14
10
16
11
14
8
10
6
7
7
13
15
7
8
12
9
9
13
17
4
13
8
7
7
4
11
7
11
8
16
6
9
14
10
10
10
14
9
8
4
8
13
8
15
9
10
12
15
13
11
14
11
10
9
10
5
11
7
12
9
16
10
12
14
17
16
15
14
10
3
1
0
0
0
1
1
0
0
0
0
0
2
1
0
0
2
0
1
0
0
1
0
0
2
0
0
0
1
0
0
1
1
0
0
1
1
0
0
1
1
0
0
0
0
1
1
0
1
1
0
0
0
0
0
0
0
1
1
0
0
0
0
1
0
0
0
1
0
1
1
1
0
0
0
1
1
0
0
0
0
1
0
0
0
2
1
0
4
0
0
1
1
1
0
1
0
0
0
0
0
0
0
0
0
0
0
0
1
0
0
0
0
0
0
0
0
1
0
0
0
0
0
2
1
0
2
0
0
0
0
0
1
0
0
0
0
2
0
2
0
1
0
0
0
0
0
0
0
0
1
0
0
0
0
0
0
0
0
0
2
1
0
0
0
0
2
0
0
0
0
1
2
0
2
0
0
0
0
0
0
0
1
1
0
0
0
0
1
0
2
0
0
0
0
0
0
2
0
0
2
40
56
61
50
46
38
43
51
42
36
41
28
26
20
21
27
22
19
19
16
14
16
12
21
22
9
11
18
14
14
11
17
9
6
9
11
6
12
23
9
13
16
17
11
9
10
12
9
13
15
17
8
10
15
10
14
13
12
8
8
7
7
14
10
10
6
8
8
13
10
16
11
8
12
10
6
7
13
7
11
14
12
10
13
9
9
12
11
11
11
20
7
13
10
5
14
11
17
11
9
9
13
10
7
10
11
11
18
11
7
10
5
14
14
7
6
10
6
8
19
16
11
11
9
16
8
13
6
12
12
3
8
8
17
14
11
7
6
13
13
9
12
12
15
11
12
8
5
11
10
6
9
10
14
6
12
13
14
9
8
20
13
5
10
8
11
13
14
10
11
10
14
10
9
11
8
17
8
10
3
6
12
8
12
2
10
8
10
7
14
14
9
20
12
9
14
10
12
9
1
0
1
0
0
1
0
0
0
0
0
0
0
0
0
1
0
0
0
0
1
1
1
0
0
0
0
0
0
0
0
0
0
0
0
0
0
0
0
0
0
0
1
0
0
0
0
0
0
0
0
0
0
0
1
0
1
0
0
0
1
0
1
1
2
0
1
0
0
0
0
1
1
0
0
0
0
0
1
1
0
0
1
0
0
0
0
2
0
0
0
0
1
1
0
0
0
0
0
0
0
0
1
2
1
1
0
0
0
1
1
0
0
0
1
0
1
0
0
0
1
0
1
1
0
0
1
1
1
1
1
0
0
0
0
0
0
0
0
0
0
0
1
0
0
1
1
0
0
0
1
1
0
0
1
2
1
0
1
0
0
0
0
1
0
0
0
1
1
3
1
0
0
0
0
0
0
1
0
0
1
0
0
1
0
2
0
0
1
0
1
0
0
1
0
0
2
2
0
2
0
0
2
1
3
1
1
0
0
0
2
0
1
1
1
0
0
0
1
2
0
0
0
0
1
0
1
0
0
0
0
0
0
0
0
0
1
0
1
1
1
1
1
0
0
2
1
0
0
1
1
2
0
0
0
1
0
1
1
0
0
0
0
1
1
0
0
0
0
0
0
0
0
0
1
0
2
0
1
0
0
0
1
0
0
0
0
0
1
0
0
1
0
0
0
1
0
1
1
0
1
0
1
1
0
0
0
1
0
0
1
0
0
0
0
0
0
0
0
0
0
1
1
0
0
1
2
0
0
0
0
0
0
0
0
1
0
0
0
0
0
0
2
1
2
1
0
0
1
1
0
0
1
1
0
0
2
0
0
0
1
1
0
0
0
1
0
0
0
0
0
0
0
0
0
0
0
0
