#Saved Data from the class pulsed_measurement_logic on 18.11.2022 at 15h04m00s.
#
#Parameters:
#===========
#
#bin width (s): 3.0000000000000000e-09
#record length (s): 5.8403999999999999e-05
#gated counting: False
#extraction parameters: {'conv_std_dev': 8.0, 'method': 'conv_deriv'}
#
#Data:
#=====
#Signal (counts)
2	14	2	6	13	12	16	16	11	12	18	14	9	20	18	14	14	11	15
1	21	3	17	17	13	25	16	14	11	15	13	9	16	10	17	17	12	9
33	33	20	19	9	16	12	18	26	14	8	22	5	28	17	69	84	21	10
76	101	65	90	85	88	25	84	90	85	19	89	76	84	93	82	61	83	68
64	74	52	55	63	61	82	81	58	68	103	65	79	47	69	62	75	67	82
55	54	70	78	68	64	62	55	63	50	64	68	61	77	71	72	54	76	61
63	78	61	64	71	82	76	66	63	66	77	61	64	68	61	63	55	63	55
67	48	53	70	58	70	73	69	50	63	68	61	64	79	67	66	50	56	68
54	79	52	71	72	57	50	59	61	69	62	47	52	66	64	65	65	63	62
58	63	37	57	61	54	57	55	68	71	60	60	64	66	63	65	71	75	80
57	51	53	48	63	56	62	53	63	56	64	62	63	57	61	78	75	57	61
69	56	49	46	65	62	67	54	79	50	74	51	48	62	65	66	53	56	49
48	57	53	59	55	45	50	63	67	57	67	58	58	62	56	69	55	64	57
50	52	31	55	61	58	64	66	54	52	62	65	58	48	65	55	60	68	58
44	55	45	53	51	57	49	57	63	56	56	51	63	52	52	49	54	66	68
38	63	44	44	53	42	60	48	58	54	47	45	53	64	57	65	61	50	43
37	59	43	60	63	52	54	63	39	44	51	63	52	55	49	62	50	58	49
45	48	45	44	53	48	52	43	47	52	39	62	64	48	55	53	60	55	59
50	52	50	62	51	53	45	49	38	55	45	53	40	55	44	44	55	40	48
61	49	47	36	63	41	46	43	49	57	48	64	51	51	54	57	53	55	45
54	46	52	64	40	44	36	51	43	56	59	41	53	43	54	55	47	53	58
47	41	58	49	52	54	33	32	45	42	52	50	34	38	46	54	48	39	47
47	56	37	51	42	44	50	39	58	51	45	57	41	49	41	43	37	52	32
49	52	35	53	27	35	41	44	50	54	46	49	43	53	57	35	46	47	33
38	56	40	50	38	52	48	38	38	46	40	40	41	59	37	47	36	45	48
39	40	41	39	41	42	43	41	38	54	52	45	52	38	38	33	43	43	41
35	28	38	44	42	43	47	32	29	48	42	48	32	44	41	48	33	46	34
39	46	38	30	31	46	39	36	54	39	50	44	39	35	42	44	40	49	44
44	37	34	34	49	43	40	42	30	32	40	39	36	40	41	35	32	40	39
35	50	37	35	39	39	46	36	35	40	44	30	32	49	45	50	46	33	40
42	31	42	56	36	40	35	39	35	25	39	43	47	46	40	33	35	33	41
41	34	34	46	39	40	36	32	38	39	38	35	38	36	39	41	32	27	35
37	38	36	32	41	40	43	39	38	36	34	44	44	38	40	31	35	41	39
27	44	33	34	36	42	43	31	51	41	43	37	34	27	38	27	30	44	44
36	30	33	40	30	37	39	46	32	40	32	32	37	34	41	33	41	32	36
46	35	41	31	31	47	38	36	32	29	31	32	37	35	43	29	29	44	22
30	34	29	50	20	37	38	28	40	40	53	28	42	25	42	49	29	43	31
27	39	35	35	33	33	36	28	36	41	29	36	28	35	28	28	34	29	31
42	40	29	25	34	33	41	39	38	32	29	37	35	39	39	29	32	42	34
36	35	24	26	31	28	34	31	39	39	37	38	25	31	26	35	39	26	34
26	35	32	31	19	38	25	33	22	40	39	37	31	23	27	22	31	28	31
33	29	37	23	29	33	38	32	35	33	27	37	23	30	39	35	33	36	35
36	23	38	34	31	27	32	34	39	35	37	32	37	21	42	34	38	35	32
29	25	28	32	31	30	34	20	32	25	25	32	41	34	30	26	35	33	31
36	30	31	34	37	37	34	31	35	40	33	32	27	35	32	40	25	28	24
38	28	28	26	31	23	26	26	24	31	16	37	27	33	28	33	31	18	26
30	26	22	24	32	18	40	27	32	33	27	27	33	35	28	23	30	25	28
25	27	25	28	15	31	29	23	25	28	31	25	25	26	24	29	36	27	41
38	37	32	28	35	13	33	31	29	37	27	18	21	36	36	27	27	31	35
24	26	27	23	23	26	23	29	30	28	35	16	34	36	32	17	27	33	24
35	36	30	28	31	23	22	26	33	31	24	25	26	33	29	26	23	27	11
29	34	34	31	27	30	27	15	36	34	27	25	19	29	26	33	32	25	27
37	24	23	24	25	22	21	20	27	22	26	42	26	23	26	25	21	22	24
29	18	14	29	24	30	46	23	28	27	28	18	17	19	34	29	29	34	26
29	29	31	33	22	30	21	27	45	29	21	17	26	22	32	20	30	25	22
27	19	20	37	25	32	27	27	25	17	31	20	28	27	19	11	20	28	29
25	23	30	27	19	23	25	22	15	28	26	40	18	27	33	27	25	19	18
31	22	21	27	31	19	20	21	38	23	29	16	27	23	24	23	21	32	32
28	25	24	26	20	34	26	21	27	20	26	27	20	24	19	22	28	34	23
21	20	19	20	23	22	31	20	26	24	21	28	24	18	27	26	29	26	19
34	22	32	15	28	28	30	31	20	29	34	23	20	21	16	22	18	28	25
18	25	17	19	13	24	22	27	27	16	39	19	32	11	22	25	17	21	25
22	22	24	27	25	18	22	25	26	16	19	20	22	16	19	24	22	28	22
33	19	24	15	16	21	12	31	26	26	22	19	23	17	36	11	17	30	22
18	23	20	24	23	19	18	28	20	17	20	20	26	27	23	26	19	33	20
32	20	17	19	25	30	22	19	28	29	24	14	18	29	21	27	20	19	28
11	14	25	23	20	22	19	23	23	22	24	22	28	23	22	15	18	20	19
20	23	23	17	28	15	14	12	26	11	20	25	30	27	9	24	22	20	30
25	21	27	32	13	22	18	20	22	20	19	20	25	13	27	22	13	27	16
19	20	16	30	19	12	22	25	18	17	17	22	18	23	20	19	21	34	18
22	15	22	20	13	27	14	25	18	27	20	22	21	22	24	25	32	9	14
12	16	20	19	18	22	24	26	18	19	18	18	23	20	19	16	20	23	21
22	16	26	28	28	20	16	17	18	16	26	18	28	28	24	20	12	19	29
30	13	23	19	8	22	20	18	22	24	18	22	22	29	23	23	28	25	26
14	22	23	22	12	20	19	23	21	14	16	18	19	13	17	25	23	21	17
25	18	16	27	16	22	17	16	16	13	10	18	14	23	19	16	22	21	22
20	16	17	14	14	20	21	21	18	23	20	19	15	16	24	20	19	27	17
20	21	18	21	20	19	21	29	16	17	17	19	17	18	23	14	13	18	14
12	18	10	24	26	13	14	18	17	19	21	28	21	21	20	18	27	14	23
17	18	27	26	19	17	20	23	16	19	15	19	27	26	18	15	24	21	20
14	18	12	14	14	12	19	22	22	25	21	18	20	14	23	25	18	10	26
15	22	20	21	19	14	12	9	24	23	20	28	20	22	20	17	16	18	23
14	25	13	24	16	22	16	21	19	14	25	23	12	14	23	14	11	15	21
19	30	23	30	16	21	26	18	20	23	22	22	24	19	21	25	18	22	17
20	17	13	14	17	18	22	21	11	13	14	18	17	18	20	18	15	14	18
18	20	17	17	18	16	15	24	14	16	19	15	23	20	18	12	10	21	25
18	14	20	16	16	16	16	18	16	17	19	22	17	26	14	7	10	12	24
18	14	21	19	18	18	14	17	20	29	10	14	13	14	17	15	16	14	15
14	21	23	9	11	23	10	25	28	19	19	19	17	21	12	18	18	13	22
17	20	24	23	16	10	16	18	15	22	13	30	13	15	18	13	16	11	16
17	21	21	19	12	11	19	13	13	15	18	13	18	20	14	10	24	20	24
15	11	29	16	18	22	13	14	12	21	16	17	18	16	21	16	17	15	16
16	9	15	14	23	17	14	17	21	16	14	9	12	19	12	20	17	14	9
13	13	18	16	12	20	18	17	19	22	12	18	15	18	18	11	13	20	20
8	15	14	11	19	20	18	14	21	18	16	14	30	12	16	17	13	21	15
20	14	23	16	23	16	18	21	11	22	15	18	17	15	21	17	19	18	14
16	19	9	25	15	24	27	20	17	17	20	12	16	23	16	24	14	16	13
20	9	20	11	11	17	16	19	19	19	15	17	19	18	10	15	12	21	13
17	16	11	10	18	12	20	12	14	19	21	15	19	15	24	21	11	8	18
7	15	24	27	16	12	20	14	8	17	14	15	20	14	27	12	14	21	16
17	13	8	8	13	23	19	15	20	17	16	17	12	10	21	10	17	18	12
18	18	16	11	15	17	16	20	9	11	16	22	22	13	13	17	17	7	25
18	16	18	17	12	12	18	15	17	21	14	12	16	15	13	18	9	13	14
15	17	22	14	12	10	15	14	10	18	12	14	15	20	14	18	19	16	13
13	20	12	14	17	11	18	17	27	12	17	8	10	19	12	12	17	13	10
16	21	18	15	13	17	17	20	11	15	14	10	15	15	18	16	10	22	18
17	10	21	17	7	10	22	12	22	14	18	20	10	12	21	7	18	14	11
12	14	20	16	22	12	22	15	14	13	23	18	15	17	15	19	13	12	20
16	14	17	14	14	17	12	22	14	15	21	10	20	16	18	16	12	10	11
16	13	11	9	19	12	12	17	21	16	12	20	7	19	13	17	16	11	19
10	13	17	11	19	13	17	9	11	16	16	18	10	18	14	15	12	12	15
19	10	17	25	13	12	10	9	14	23	14	12	22	13	20	13	15	13	14
14	15	25	13	22	10	15	14	17	10	21	15	18	7	14	18	9	16	16
9	10	17	11	21	13	13	15	13	9	13	18	18	11	16	13	10	9	14
17	21	21	12	18	14	14	14	14	8	8	12	12	12	13	13	14	10	10
14	12	13	8	26	12	18	16	21	12	9	10	18	12	8	19	13	13	14
20	18	14	18	15	14	19	11	17	12	12	9	21	16	17	12	7	15	17
25	9	8	15	19	17	20	12	14	11	18	12	11	11	11	16	23	16	13
20	14	26	10	14	17	16	11	10	15	10	14	16	12	15	16	15	10	7
20	17	15	16	11	13	14	12	18	12	8	13	15	12	12	14	14	13	12
17	15	22	13	16	14	8	14	13	14	7	16	20	13	16	11	13	23	16
13	19	22	10	12	11	14	6	6	15	14	15	13	11	11	20	8	15	14
19	10	16	16	23	15	13	10	13	11	16	9	14	14	22	11	20	10	14
15	12	10	16	16	11	14	9	17	11	13	14	19	17	16	19	10	14	16
16	19	9	12	13	15	12	21	22	9	17	13	9	15	20	11	17	17	10
13	16	15	18	7	11	12	10	14	15	15	14	16	9	25	11	14	13	10
14	15	16	13	12	16	10	13	18	10	7	9	18	21	12	15	17	12	17
15	12	18	14	20	11	15	17	9	12	16	8	13	10	12	14	17	12	13
15	14	19	17	8	13	11	11	13	12	14	21	18	23	11	17	13	8	15
20	8	19	19	20	12	6	17	10	10	9	16	16	10	10	13	12	16	10
9	11	21	12	8	8	14	18	11	11	7	18	12	17	16	13	13	14	17
22	12	7	13	11	13	12	11	15	11	10	22	7	14	8	18	8	21	17
19	14	10	19	16	15	21	13	13	15	14	10	12	15	11	16	16	13	14
14	13	12	10	10	16	15	15	14	17	6	13	14	10	12	20	11	21	12
15	14	13	16	20	14	18	12	17	12	9	18	19	15	11	13	13	24	14
12	12	15	12	19	11	18	14	18	15	14	9	19	18	16	13	11	11	17
13	12	17	14	18	17	13	9	14	7	15	13	9	8	13	11	13	17	7
13	21	19	13	5	15	13	8	11	15	14	10	11	16	17	8	14	13	14
9	13	12	15	12	12	14	14	8	14	12	15	18	12	11	15	11	18	16
16	11	11	15	18	14	7	11	18	13	12	13	9	14	8	9	13	9	9
12	17	17	11	13	17	14	11	12	19	13	16	14	8	8	10	13	9	13
13	18	21	13	14	11	16	16	10	14	9	19	14	14	8	15	12	10	12
17	11	14	8	14	13	11	15	7	8	9	16	13	12	7	9	12	14	17
16	8	15	14	7	10	12	13	13	13	11	10	16	15	9	8	15	16	12
20	8	20	7	10	18	14	20	11	14	16	8	16	13	16	2	14	14	6
13	17	16	14	8	12	10	12	10	14	14	20	17	8	16	12	5	11	15
15	24	17	11	19	10	22	12	19	7	21	9	14	13	13	8	17	6	7
11	11	15	13	13	6	13	13	12	11	12	15	16	16	13	15	12	12	14
12	23	14	19	5	10	11	17	14	19	13	19	6	11	13	11	12	11	18
18	16	14	13	11	11	10	12	18	18	13	13	8	11	14	12	12	13	13
17	14	16	8	11	10	9	8	13	14	13	11	14	12	24	12	19	15	16
21	13	13	10	14	19	14	13	17	10	8	14	16	12	14	13	11	21	14
14	14	17	9	11	8	12	21	15	9	6	10	9	12	14	11	9	10	13
10	12	15	11	8	14	13	8	16	10	13	9	19	6	14	6	8	11	13
16	14	9	14	11	5	10	6	10	14	9	7	11	7	18	11	8	7	13
18	14	18	11	9	5	15	12	8	14	9	18	10	13	9	14	17	10	20
15	17	15	10	7	9	12	12	17	12	7	14	13	14	12	12	7	10	11
15	14	17	12	15	13	15	9	13	9	10	19	15	11	15	18	14	11	13
17	21	11	15	13	10	13	13	12	15	6	12	12	10	9	12	10	9	9
14	14	14	15	14	5	8	10	12	18	11	12	16	8	12	7	16	11	11
6	10	18	7	18	12	14	15	15	14	11	12	11	12	9	12	17	8	10
10	13	17	10	13	14	10	8	15	15	13	12	9	11	8	10	12	16	11
10	14	12	11	16	11	14	9	13	13	12	19	13	11	9	17	18	11	14
11	10	13	17	12	16	15	8	11	18	10	12	17	11	13	14	13	10	16
9	14	18	11	10	11	9	9	12	7	17	9	10	12	5	7	11	12	22
14	11	23	8	14	16	10	19	12	9	13	9	16	10	6	13	15	9	12
12	15	12	14	3	10	11	14	4	17	5	10	11	16	5	10	9	13	14
9	8	17	21	5	11	14	10	9	13	16	8	9	14	4	15	9	13	15
13	15	14	15	9	17	7	9	10	6	8	12	10	15	12	11	14	16	15
15	14	16	14	8	15	17	15	9	14	8	12	8	9	17	11	9	13	15
13	13	17	12	5	11	15	13	11	15	14	16	14	13	12	12	8	18	11
16	14	13	15	14	16	12	8	12	6	16	17	9	6	14	9	7	7	19
9	8	18	18	6	10	10	10	10	15	10	13	14	12	5	13	9	9	4
11	11	21	14	6	9	10	8	12	9	14	10	11	15	14	7	6	7	9
15	9	17	17	12	11	11	15	10	12	7	6	10	12	12	17	10	9	9
11	12	18	10	14	11	16	10	8	11	10	8	10	9	14	10	13	10	11
6	18	8	14	10	8	17	8	8	11	10	13	3	20	15	10	13	9	5
16	9	18	17	11	19	10	14	13	11	10	12	7	6	14	11	15	19	10
16	9	17	11	7	14	10	10	9	13	10	13	9	18	20	15	10	6	10
20	12	17	4	16	20	20	10	6	13	7	9	11	19	7	14	11	10	13
10	9	15	11	11	15	15	10	17	15	5	10	12	16	12	15	12	13	14
13	13	15	14	5	13	11	18	12	11	14	9	10	17	12	10	9	9	13
13	12	14	14	15	12	14	12	10	13	19	11	12	11	13	14	12	14	7
11	13	19	12	12	13	7	12	13	13	14	8	13	9	15	10	10	12	5
15	13	15	9	13	11	9	12	12	9	11	14	8	9	8	12	9	12	17
11	6	10	12	8	22	21	17	8	8	11	18	17	9	8	14	12	19	13
11	10	14	17	13	15	4	8	13	14	12	13	10	10	9	11	18	13	10
14	15	11	8	12	5	6	10	16	12	9	14	8	9	14	8	15	12	17
7	9	17	15	14	13	14	10	13	11	19	10	12	11	6	10	13	7	8
11	8	12	13	11	11	10	5	12	11	11	16	11	16	11	16	7	10	7
27	12	16	10	9	12	11	10	17	15	10	21	11	9	13	7	9	9	8
10	13	17	17	15	9	19	9	15	10	11	10	17	9	10	14	16	8	6
15	13	15	9	19	8	15	14	10	9	14	7	10	10	8	16	16	13	13
15	13	6	8	11	11	7	10	6	15	12	8	12	7	7	13	9	7	15
15	17	12	17	12	7	15	9	13	13	11	10	12	14	14	13	14	17	7
12	15	16	8	10	7	15	10	10	11	14	20	10	14	9	14	18	15	15
18	5	15	15	12	16	20	18	16	16	7	9	9	5	13	4	20	12	13
8	12	19	10	7	9	9	9	10	7	9	18	10	11	9	13	11	8	11
11	6	13	9	15	14	7	17	11	9	14	6	9	9	17	11	14	12	6
12	14	10	16	12	11	13	14	14	11	20	9	14	7	8	9	21	8	10
21	11	14	9	8	12	14	11	8	10	12	10	11	10	9	11	7	10	14
13	13	15	13	5	14	14	9	17	12	12	8	13	14	13	10	7	12	16
10	7	14	9	10	6	12	7	15	20	13	15	17	9	8	6	11	11	14
8	7	14	9	10	12	10	10	10	18	4	12	12	16	11	16	11	11	13
14	14	14	7	6	17	12	12	9	13	8	12	13	10	6	11	11	16	13
8	18	12	10	7	8	7	7	10	9	5	13	14	12	14	14	8	14	11
9	7	13	13	12	15	8	13	10	15	10	9	16	14	16	10	7	13	11
13	12	10	7	10	12	13	11	6	15	12	6	17	6	13	15	9	15	14
15	11	13	9	10	14	8	7	11	8	8	11	4	11	11	14	11	16	15
13	13	15	7	16	5	11	12	12	15	13	14	11	14	6	9	17	7	11
6	11	19	17	9	11	5	11	17	9	12	16	9	10	17	14	8	9	9
17	17	15	10	16	12	12	10	9	18	14	7	9	14	12	14	17	7	12
12	11	14	9	16	7	9	11	12	14	12	15	12	8	11	10	15	10	16
16	9	16	11	9	4	14	16	12	12	9	7	11	9	11	6	11	4	8
11	12	14	11	16	12	12	9	10	7	14	15	6	8	8	14	12	10	12
17	13	13	16	12	12	11	13	13	17	11	14	13	10	14	10	20	11	10
9	11	19	17	9	16	16	9	17	10	7	15	13	11	13	13	9	8	5
12	9	22	10	10	9	16	13	7	12	16	11	10	22	5	9	8	7	9
15	10	11	11	9	12	15	9	19	7	11	12	7	9	14	15	7	16	10
14	15	20	10	6	11	11	10	7	15	18	10	8	10	13	12	10	13	5
13	9	17	20	10	12	6	9	9	14	9	9	11	9	12	14	13	7	12
15	11	11	13	13	11	13	7	15	13	6	10	11	9	13	15	9	9	11
14	10	18	5	13	14	11	12	11	10	11	16	13	15	12	10	8	9	13
12	7	8	8	13	8	14	12	9	9	17	12	8	8	11	8	8	14	13
8	14	12	11	8	16	12	11	11	17	14	18	8	17	12	14	13	9	7
9	16	15	12	9	8	9	10	9	12	17	10	11	9	11	13	14	11	12
13	11	14	9	6	14	8	20	15	9	10	9	13	8	15	9	8	15	11
16	7	16	7	8	9	16	8	8	6	7	11	9	17	6	9	14	16	18
20	2	11	6	9	10	17	9	12	20	8	15	8	15	13	18	18	12	15
16	10	14	11	10	9	10	9	16	7	9	14	14	6	16	14	9	15	13
16	10	10	11	17	13	11	14	13	14	10	16	11	10	13	13	11	11	20
16	5	14	14	9	11	15	12	14	11	12	7	14	9	12	14	8	9	13
10	5	14	13	13	10	7	9	11	14	10	7	22	10	12	12	11	7	13
13	9	11	12	17	11	9	6	8	14	10	11	8	8	14	9	8	12	12
12	11	9	10	10	9	8	16	11	13	13	11	14	12	12	12	13	7	12
10	10	14	11	11	15	9	11	12	14	11	13	8	5	14	9	12	11	8
9	14	12	13	11	8	17	12	13	8	8	14	8	12	15	9	12	12	8
12	7	7	5	7	9	9	12	8	17	8	6	14	10	9	13	9	15	13
12	12	10	4	8	12	9	8	8	10	14	12	15	15	16	18	11	10	10
9	14	18	11	14	11	9	9	13	16	12	15	10	8	9	7	11	10	12
14	13	14	18	13	10	13	10	14	10	11	15	9	11	13	9	8	11	9
12	10	18	9	15	13	12	6	11	13	13	10	11	7	10	14	16	10	8
18	8	20	14	13	12	13	15	8	10	15	4	8	8	9	21	14	12	13
11	9	14	9	14	9	13	7	12	13	7	12	8	4	5	21	14	6	9
18	12	9	18	10	13	12	7	12	13	12	14	5	9	9	6	10	11	7
13	10	16	9	7	10	12	6	7	10	11	12	17	7	15	8	14	10	16
6	10	13	5	11	7	11	12	18	11	12	11	8	7	6	13	9	9	10
11	6	18	11	15	12	11	14	19	11	12	11	5	12	8	5	10	11	12
12	7	12	9	9	12	19	13	10	11	12	10	7	11	11	4	6	15	11
10	17	22	13	11	9	14	13	10	11	14	14	9	13	12	10	7	6	8
14	10	12	10	10	7	14	7	11	14	11	8	8	18	6	7	9	15	13
13	16	8	7	15	5	13	6	12	13	12	13	15	14	12	9	11	11	10
15	16	15	12	8	11	17	10	11	12	12	12	7	12	9	17	10	7	16
12	8	11	14	11	10	13	9	8	11	13	12	6	11	11	13	4	16	7
10	9	9	11	6	17	14	10	16	17	12	12	7	11	13	12	9	11	16
15	9	12	9	16	9	5	11	8	20	7	11	14	8	4	7	8	16	11
10	5	12	13	6	4	12	12	13	9	10	9	9	13	12	6	11	9	16
11	5	7	9	16	9	5	5	14	10	14	13	13	9	7	11	14	7	9
15	9	14	13	14	9	11	11	13	12	10	11	5	16	8	8	8	5	5
20	11	13	8	19	7	3	9	9	11	8	10	6	9	7	8	10	10	9
20	11	10	13	8	7	10	10	14	10	12	13	6	14	6	7	17	10	17
17	12	9	6	12	9	11	9	8	11	15	8	12	11	8	8	10	7	9
14	10	12	9	12	10	10	9	6	9	10	6	11	14	5	11	7	8	7
19	12	13	10	6	14	9	10	5	11	15	8	9	7	9	14	12	13	15
17	12	12	9	13	11	9	7	6	7	12	7	14	8	10	15	14	10	8
15	13	12	10	9	9	15	11	16	14	6	14	12	11	11	18	19	11	14
15	16	16	10	10	5	12	10	15	15	20	15	8	13	9	11	18	13	12
13	18	15	10	9	12	7	12	11	13	7	16	10	8	8	11	11	6	11
15	10	14	13	8	12	15	8	17	13	12	14	11	8	12	12	11	12	10
13	11	14	15	8	21	14	8	7	15	11	11	9	15	6	11	13	14	9
14	13	18	8	10	10	10	6	8	8	11	10	5	14	11	15	4	12	14
15	7	12	10	11	12	13	12	11	15	15	12	6	13	9	9	11	9	11
13	14	14	17	10	8	13	12	10	15	10	10	14	12	11	8	8	15	11
16	10	10	7	10	5	9	10	8	11	11	21	7	8	16	10	9	10	10
11	12	14	8	7	14	5	10	8	8	12	7	8	5	10	16	11	6	10
12	9	13	11	14	13	19	13	12	11	10	17	9	13	13	6	11	8	6
15	12	11	12	14	7	12	12	13	14	14	8	14	13	17	8	7	15	6
11	6	8	12	9	12	8	12	6	7	13	9	7	9	17	10	6	8	7
6	14	16	9	10	11	10	12	15	9	10	11	11	15	8	14	9	11	4
5	8	7	10	13	4	8	12	8	7	11	10	15	7	11	10	12	9	12
9	13	10	14	12	7	16	7	10	9	10	9	10	14	9	13	8	10	8
16	9	12	12	8	3	11	13	14	4	11	14	12	9	16	13	15	11	8
11	10	11	15	16	14	12	11	17	8	13	8	7	7	16	14	13	8	12
13	10	13	8	18	14	9	10	9	15	7	12	12	12	7	7	12	9	14
15	11	17	13	10	14	12	9	17	5	10	9	9	15	7	11	9	4	18
9	9	9	13	9	8	6	12	7	9	6	11	12	13	12	11	17	8	13
17	11	10	8	8	10	18	10	11	10	12	11	8	9	12	11	11	12	13
13	7	7	13	11	10	13	16	10	10	5	16	11	11	11	10	12	11	13
12	12	12	9	10	9	9	10	16	16	6	19	6	8	7	16	14	7	11
6	11	12	9	10	19	10	6	10	10	10	5	11	10	8	8	11	7	10
12	14	10	12	8	15	6	14	11	6	17	9	12	12	9	11	8	5	16
11	11	16	13	10	9	9	12	20	7	12	13	15	8	21	11	7	14	14
19	11	12	10	12	9	6	12	14	8	11	16	9	6	4	11	16	11	13
19	11	10	15	8	16	11	9	8	10	7	10	12	14	7	11	10	7	11
10	10	20	8	6	13	8	8	10	7	14	15	13	9	10	10	12	10	13
12	16	11	10	11	10	8	8	5	15	8	14	6	14	12	10	9	11	11
16	10	12	13	8	11	10	12	7	13	11	7	8	14	17	12	17	10	11
11	11	8	10	13	9	16	16	15	9	6	9	12	8	10	12	9	6	13
15	13	7	11	5	10	11	5	9	9	10	12	10	14	14	7	19	19	9
15	12	19	12	7	14	9	13	7	8	16	16	17	8	14	13	8	14	12
12	8	18	14	7	11	17	6	5	7	15	9	10	10	7	8	16	18	4
15	11	17	5	14	11	6	12	13	12	12	6	15	13	16	13	10	8	17
10	10	9	11	14	19	6	18	13	8	18	14	8	11	7	16	12	5	10
17	13	13	12	13	5	10	15	11	11	13	8	12	15	13	8	12	7	12
12	9	14	10	9	9	12	9	17	8	12	8	7	12	6	9	9	11	13
14	9	10	13	14	11	8	10	14	12	7	11	14	13	16	20	15	15	8
7	12	12	10	10	9	9	7	9	7	11	7	12	8	13	19	8	9	10
20	6	12	7	12	17	8	12	15	7	12	10	10	16	13	5	5	12	3
14	9	12	6	15	11	11	9	5	8	9	13	10	17	12	17	7	12	11
15	9	11	15	10	17	14	11	12	15	13	12	12	9	11	13	9	11	6
16	15	22	10	10	10	14	12	10	6	16	15	8	12	11	13	10	17	12
12	13	9	7	10	18	16	17	14	14	10	10	13	8	11	10	11	7	5
9	11	13	10	17	12	11	10	7	10	8	13	5	11	9	6	15	10	9
13	9	15	8	9	17	9	9	8	6	13	12	8	11	9	18	15	15	13
19	11	10	6	7	13	8	10	12	7	11	7	6	12	12	13	16	14	12
9	17	20	16	7	10	10	5	17	16	8	13	15	13	17	14	6	8	11
14	21	4	11	9	14	12	8	14	13	9	14	10	9	9	11	14	8	14
12	10	9	9	8	13	10	7	10	9	9	11	10	15	9	12	13	9	12
15	7	10	9	15	10	12	7	8	13	17	8	8	7	16	15	16	8	10
7	12	13	8	8	8	9	10	14	5	9	10	8	11	6	8	6	14	8
16	11	6	9	11	16	8	13	7	14	13	10	7	11	10	7	8	11	13
10	7	16	12	9	11	12	19	5	11	15	12	16	10	10	8	10	8	12
16	8	7	19	12	14	9	6	11	15	16	14	11	10	12	13	6	13	10
10	7	15	7	17	10	9	11	5	11	17	10	12	15	11	10	9	18	16
13	8	15	14	6	9	7	12	13	11	14	5	10	11	13	14	18	8	7
14	9	15	11	9	7	7	9	6	9	14	8	8	8	12	10	14	8	11
13	13	6	9	11	9	16	16	9	10	12	10	9	11	10	8	9	8	12
6	13	9	15	17	12	11	11	12	10	10	9	15	10	13	11	8	7	9
17	12	12	11	9	22	13	17	12	10	7	8	8	11	5	9	12	7	11
13	15	14	4	7	12	13	8	8	9	13	8	14	6	9	16	12	15	8
13	11	16	10	10	13	13	15	11	7	5	13	11	14	9	14	15	12	11
10	9	12	11	17	10	12	9	10	14	17	11	10	12	7	11	6	11	14
13	9	11	6	9	4	11	13	14	10	10	9	12	8	11	12	14	14	10
14	14	6	13	9	12	11	8	10	4	11	10	13	7	11	12	10	15	9
21	15	17	13	12	8	8	16	12	15	14	8	17	16	10	15	7	14	13
33	13	19	9	12	10	11	13	7	9	12	16	7	6	9	10	6	15	16
101	8	90	7	3	6	8	13	5	3	14	9	7	3	8	4	5	8	10
74	2	55	2	2	2	5	4	6	5	3	3	6	3	0	1	2	2	3
54	2	78	5	1	1	2	4	1	0	3	0	1	2	1	4	2	3	0
78	0	64	4	3	8	2	1	8	2	1	6	5	9	4	5	2	6	4
48	2	70	2	4	3	5	1	4	3	5	5	5	3	2	1	3	2	5
79	3	71	1	2	3	6	4	3	6	3	6	1	6	5	5	5	2	4
63	2	57	7	2	0	3	1	2	3	4	5	1	4	1	3	3	3	5
51	3	48	4	4	1	3	0	5	5	5	2	5	4	5	4	1	5	0
56	1	46	6	3	2	3	2	3	4	5	4	5	4	5	2	2	3	2
57	7	59	7	3	2	2	0	4	3	5	2	2	6	7	4	1	6	3
52	1	55	2	4	8	3	1	2	5	4	6	4	2	1	3	4	5	1
55	6	53	5	5	8	3	5	5	3	0	6	4	1	2	0	3	0	2
63	0	44	3	4	3	4	4	6	4	3	2	4	3	4	6	2	2	3
59	3	60	1	2	4	5	3	7	2	3	2	3	1	4	2	4	7	5
48	3	44	3	6	4	5	1	2	1	2	2	3	3	4	3	1	5	5
52	2	62	0	3	1	3	3	3	1	1	1	5	3	2	3	5	6	3
49	0	36	0	1	4	0	2	2	3	0	3	1	1	4	1	2	3	4
46	3	64	2	2	2	5	7	2	6	4	1	4	4	5	2	4	4	0
41	8	49	3	3	1	2	6	5	4	4	8	3	2	5	1	2	2	4
56	2	51	3	1	5	3	5	5	7	3	2	5	11	2	3	3	4	2
52	4	53	2	3	4	3	2	5	3	4	3	2	1	3	3	3	3	3
56	0	50	7	4	4	1	2	6	5	4	4	0	3	3	5	2	3	3
40	0	39	3	4	5	5	5	2	6	1	5	2	4	2	4	3	7	7
28	3	44	4	1	4	1	6	1	5	3	3	4	2	5	5	4	5	2
46	1	30	2	3	4	6	7	5	4	5	9	3	7	7	1	0	3	3
37	2	34	1	4	4	6	4	4	3	3	7	2	2	7	5	4	5	3
50	2	35	4	1	2	2	1	4	7	2	2	1	4	3	2	3	2	1
31	2	56	1	4	3	3	3	2	2	3	3	5	3	1	2	3	7	5
34	3	46	2	5	8	9	5	3	2	2	2	2	1	3	3	1	4	6
38	7	32	5	4	1	7	1	4	4	2	2	1	4	4	1	2	2	2
44	1	34	1	4	2	5	4	1	2	1	3	4	0	5	2	6	1	2
30	6	40	6	2	4	4	0	3	1	6	0	4	3	7	5	2	5	4
35	3	31	4	3	6	5	4	6	2	2	2	2	5	3	2	3	3	7
34	3	50	6	4	4	4	4	1	3	3	6	3	3	5	8	3	1	7
39	2	35	2	2	4	2	2	1	4	4	1	2	1	2	6	4	6	5
40	1	25	1	0	5	3	8	1	3	3	4	4	1	2	2	4	2	3
35	5	26	3	3	1	3	3	3	4	3	5	5	2	1	3	4	3	3
35	0	31	2	4	2	0	2	4	3	1	3	3	3	5	7	6	4	2
29	6	23	8	3	0	4	2	5	6	6	4	3	7	4	3	2	2	3
23	4	34	2	2	4	3	4	3	2	2	6	1	3	3	4	1	3	1
25	3	32	2	4	4	5	4	1	1	1	4	2	5	3	3	4	2	1
30	1	34	7	5	4	0	4	1	3	6	8	3	4	1	2	2	4	5
28	3	26	3	3	3	2	7	2	1	5	5	7	2	1	2	2	6	4
26	6	24	1	4	4	3	3	7	4	5	4	3	7	3	4	6	3	6
27	4	28	0	2	5	4	6	5	1	3	3	2	3	4	3	1	3	3
37	4	28	4	3	4	2	3	4	3	4	4	4	2	2	3	2	3	1
26	3	23	3	1	3	2	1	0	7	2	5	3	4	5	7	6	3	3
36	0	28	3	3	3	4	5	6	2	2	4	3	0	2	3	2	3	2
34	2	31	3	4	7	2	2	5	4	2	2	4	1	1	3	3	3	4
24	0	24	5	2	3	4	1	4	3	2	2	5	4	4	3	5	4	3
18	3	29	4	4	5	1	4	6	5	4	1	4	4	1	2	1	3	1
29	6	33	5	3	1	1	4	6	3	3	1	4	5	2	2	3	1	4
19	2	37	2	1	4	3	4	3	2	2	3	4	3	2	2	2	0	3
23	5	27	7	3	4	3	5	2	2	5	5	8	2	7	3	2	7	1
22	1	27	2	2	2	4	5	3	6	2	3	2	2	4	5	2	3	4
25	6	26	4	7	2	2	4	2	6	1	5	6	3	3	7	3	10	1
20	2	20	3	2	2	1	3	2	3	2	1	4	7	2	5	3	5	6
22	4	15	5	3	4	3	3	4	8	3	3	3	7	3	5	4	1	2
25	1	19	1	0	3	4	6	3	6	6	1	2	1	2	5	5	3	3
22	4	27	3	4	4	4	1	4	2	2	3	0	6	4	5	1	3	2
19	5	15	0	3	4	6	5	4	3	2	1	1	2	1	7	2	3	8
23	4	24	4	0	2	2	3	6	2	4	0	4	2	1	5	4	3	2
20	5	19	3	2	3	4	4	6	5	3	6	6	2	4	2	4	2	1
14	2	23	5	0	6	8	1	5	0	2	2	3	5	2	0	4	2	3
23	2	17	3	8	4	6	5	5	8	6	4	1	1	2	5	4	3	4
21	8	32	5	1	5	8	4	4	6	0	4	2	1	3	6	2	3	4
20	2	30	5	2	3	4	4	2	0	4	2	5	2	4	2	1	3	2
15	2	20	2	1	2	3	4	5	6	4	4	2	2	6	1	2	5	3
16	4	19	5	8	3	6	0	4	4	4	2	4	4	6	5	1	3	4
16	3	28	0	1	2	8	4	4	5	5	7	4	6	2	4	5	5	5
13	4	19	2	3	2	3	3	3	2	5	3	4	6	3	2	1	3	4
22	2	22	0	4	4	6	2	1	6	1	4	4	3	5	4	2	2	3
18	3	27	1	5	2	2	2	7	3	2	1	3	1	5	7	5	0	1
16	20	14	1	4	10	3	3	6	5	1	2	6	2	3	7	2	4	3
21	65	21	6	1	4	2	0	3	0	3	6	3	0	3	4	2	0	3
18	52	24	3	5	2	2	2	2	4	4	2	3	3	2	4	4	3	3
18	70	26	4	5	4	4	3	2	4	2	3	3	4	4	4	1	7	1
18	61	14	1	1	4	1	4	4	5	8	2	5	1	6	5	3	5	0
22	53	21	0	2	6	5	9	2	3	5	4	2	1	3	5	6	3	4
25	52	24	1	2	5	4	3	2	3	3	3	2	5	2	3	3	2	4
30	37	30	4	8	7	1	2	1	3	7	2	3	3	4	4	0	5	4
17	53	14	3	4	10	0	6	2	3	3	3	3	2	0	5	3	4	5
20	49	17	3	1	3	3	0	1	1	6	3	4	2	3	1	1	6	1
14	53	16	3	3	6	1	4	4	3	8	1	1	1	3	2	7	3	2
14	31	19	3	2	3	2	3	1	4	3	3	4	1	2	2	2	5	4
21	45	9	4	1	2	1	5	3	4	5	7	0	3	5	4	5	2	5
20	44	23	1	1	1	5	6	2	8	7	1	3	4	4	1	4	0	4
21	43	19	3	4	2	2	2	1	2	3	7	2	3	1	2	3	2	4
11	45	16	3	3	2	1	3	5	4	2	4	5	4	2	8	2	4	5
9	50	14	2	0	4	4	5	1	4	3	3	2	2	2	2	3	7	3
13	47	16	7	4	2	6	3	3	2	3	3	3	2	3	2	4	5	2
15	52	11	4	5	3	4	3	4	1	0	5	3	2	4	5	0	1	5
14	58	16	4	3	8	1	2	1	2	4	4	4	3	4	5	3	1	6
19	37	25	3	3	5	4	1	2	5	2	2	2	6	2	2	1	2	5
9	35	11	4	2	1	5	4	7	2	3	3	4	5	3	3	1	2	4
16	40	10	4	3	4	3	3	5	2	1	3	3	2	4	4	5	1	2
15	41	27	0	6	0	4	2	6	4	2	2	6	4	4	4	4	2	6
13	38	8	1	2	4	4	2	2	1	2	2	3	6	3	4	6	4	3
18	38	11	4	1	2	4	4	0	3	5	0	3	0	2	4	3	4	2
16	34	17	3	6	2	1	3	3	1	0	2	2	3	3	2	4	6	0
17	37	14	3	4	8	3	2	2	3	5	2	3	1	2	1	4	4	2
20	42	14	4	4	5	1	5	1	2	2	4	3	7	3	1	4	2	3
21	34	15	2	6	2	2	0	1	5	5	3	4	1	4	2	3	1	1
10	36	17	4	4	0	3	3	5	3	1	4	6	4	4	5	0	6	5
14	33	16	3	2	1	1	5	7	5	3	3	2	1	3	6	2	1	3
14	33	14	2	2	1	3	4	2	4	2	4	3	4	0	3	3	5	1
13	41	9	5	0	1	0	5	3	3	3	4	5	5	3	4	6	3	3
13	29	11	71	3	2	2	2	2	3	4	2	2	5	4	1	2	3	6
10	35	25	64	4	6	1	3	0	4	4	4	2	4	6	6	3	3	2
15	29	13	48	4	5	1	4	3	4	1	4	1	2	4	2	2	2	3
10	24	11	40	2	3	3	4	0	7	3	3	3	5	3	4	1	1	0
21	32	12	42	7	3	1	4	2	3	3	3	2	3	1	3	2	4	3
12	37	8	51	3	8	4	3	2	1	4	2	1	5	1	4	7	5	2
18	38	18	60	4	2	0	5	4	6	3	5	4	5	1	4	1	5	2
9	28	15	48	5	3	0	5	6	4	2	4	3	6	4	2	4	4	5
14	31	10	42	5	2	4	3	2	4	4	1	6	4	3	5	5	2	5
17	28	16	54	4	0	3	5	1	1	9	5	2	1	2	1	1	4	4
15	22	13	40	6	3	3	2	4	2	3	3	4	1	2	3	3	1	4
19	25	10	47	3	1	3	1	6	1	5	3	2	1	2	3	3	4	2
10	32	16	42	6	1	4	5	3	3	3	3	1	2	6	2	2	3	7
12	27	16	34	3	5	5	6	2	1	4	3	3	3	4	5	3	3	2
19	30	12	40	0	4	2	2	3	4	1	2	5	4	4	5	7	5	1
16	34	18	49	2	3	3	5	6	1	2	3	4	2	1	3	2	5	2
15	23	13	35	4	2	3	1	2	1	6	2	4	4	5	3	2	2	5
12	14	14	47	1	0	4	2	4	2	1	3	4	6	6	3	5	3	1
14	31	17	28	4	7	2	0	4	2	5	1	3	4	1	5	4	4	8
8	20	19	50	2	4	1	4	4	4	2	2	1	6	0	4	5	5	1
11	30	12	41	4	2	2	2	3	1	1	1	8	5	3	1	2	5	4
12	21	13	34	2	2	1	3	3	1	2	3	2	1	1	6	4	2	5
14	24	19	31	8	3	2	5	3	4	3	4	1	0	1	5	2	3	5
13	19	10	43	2	5	3	3	3	2	4	2	5	0	7	4	4	2	5
14	32	16	26	3	5	6	1	5	5	3	2	7	4	3	2	2	1	3
12	17	12	35	2	5	3	4	2	4	3	2	5	3	2	3	5	4	6
12	24	14	38	4	1	4	5	3	4	4	3	1	1	6	5	5	2	2
21	24	13	26	4	0	3	7	3	3	2	3	5	4	2	4	4	3	2
13	20	15	39	2	2	2	3	4	4	1	2	7	4	4	1	3	4	5
11	17	15	35	3	3	0	0	2	3	1	1	2	1	5	6	4	1	0
17	25	11	33	5	0	4	3	4	3	4	3	0	3	4	0	4	0	1
18	23	13	35	2	6	3	2	1	1	7	5	5	1	2	7	4	1	1
11	27	8	33	2	3	0	5	3	4	6	2	2	5	5	1	4	1	3
8	16	14	21	30	5	4	2	5	1	2	3	2	3	3	1	2	5	4
8	22	7	35	81	6	5	1	1	4	1	1	6	5	5	1	5	3	2
17	20	14	37	49	1	3	5	3	3	1	2	1	2	2	1	1	3	10
24	26	11	43	48	5	4	3	2	3	6	2	4	1	1	7	2	1	4
11	23	13	27	48	2	1	1	6	1	5	0	4	2	2	1	1	0	1
23	23	19	22	45	4	1	3	1	2	7	4	4	2	4	3	3	4	4
16	16	13	26	50	7	3	5	2	4	3	0	3	5	3	5	2	5	2
14	17	8	30	47	7	3	3	5	1	1	5	2	4	4	0	2	8	6
13	18	10	22	47	3	3	5	5	3	1	4	7	4	1	4	5	3	4
14	10	9	23	46	2	2	3	4	0	3	1	1	8	1	1	3	3	3
12	27	11	29	38	3	4	2	3	6	0	3	5	1	2	2	4	3	4
14	12	14	31	39	2	1	0	3	1	6	4	4	2	2	3	2	3	5
14	20	11	32	37	2	5	1	4	3	1	2	3	4	1	5	2	3	8
17	13	10	34	36	0	1	1	6	0	6	5	2	2	6	1	1	2	2
14	23	12	17	29	2	2	3	3	0	3	1	1	4	4	2	5	5	2
21	13	15	20	37	2	4	2	3	0	2	4	2	5	6	3	5	2	1
14	17	15	21	47	4	6	4	3	3	1	3	3	4	5	1	2	1	1
10	20	7	34	40	2	2	6	1	3	4	6	4	4	4	3	2	4	3
13	21	10	24	37	3	5	6	3	5	5	2	4	4	3	6	2	4	6
14	23	11	21	44	2	2	2	3	1	2	4	3	0	8	2	5	7	2
10	24	17	21	34	3	0	3	4	4	4	2	4	2	4	6	2	3	4
14	21	11	30	30	2	6	1	3	2	6	2	1	3	2	4	4	1	10
11	29	8	23	42	2	2	4	4	0	5	1	4	4	2	5	5	4	0
15	15	14	20	43	2	4	3	7	3	4	3	3	7	5	3	3	3	7
8	18	21	21	35	6	0	6	7	2	0	8	3	4	2	5	5	6	6
15	14	15	21	47	4	3	9	1	1	4	3	2	5	0	0	1	1	2
14	23	14	25	36	2	4	3	2	2	5	7	8	5	2	5	2	6	2
13	9	12	22	43	3	3	1	1	2	3	3	6	6	4	3	6	5	2
14	20	15	22	30	2	2	2	5	5	4	2	4	5	3	2	5	4	2
8	11	18	24	46	3	2	2	4	1	3	4	1	1	3	3	3	9	2
11	24	14	28	32	4	2	2	1	5	1	7	6	2	5	5	6	5	2
9	8	17	17	38	7	2	4	6	1	5	1	5	1	4	4	1	2	1
12	16	10	18	37	4	1	9	3	2	1	4	3	3	2	4	3	4	2
18	18	14	21	26	26	4	6	6	4	5	1	3	1	3	4	3	2	4
9	22	17	22	31	70	4	6	2	5	2	5	4	2	5	1	2	4	2
9	12	11	24	32	54	2	3	8	3	8	5	5	4	2	4	2	4	3
12	18	4	19	36	53	3	4	4	0	3	5	4	2	4	5	7	5	2
9	21	11	17	44	46	4	7	6	1	4	4	5	6	2	7	4	6	1
13	20	14	24	33	37	7	3	1	3	2	3	3	4	2	4	3	2	4
12	17	14	23	32	46	2	4	5	5	4	4	2	7	3	2	3	2	4
13	11	12	23	17	62	2	2	3	2	2	2	6	2	3	4	3	4	4
13	17	9	18	27	41	4	7	2	4	3	1	5	4	3	2	7	5	5
6	17	12	22	27	47	4	3	2	1	5	2	3	3	2	5	5	5	3
10	25	17	14	30	29	4	4	3	8	4	4	4	2	4	5	4	1	0
15	17	8	18	27	40	1	3	4	2	1	2	4	2	4	2	4	0	2
9	21	15	30	22	42	3	1	4	3	2	2	5	1	1	3	2	2	5
8	13	13	21	27	52	4	2	5	4	3	5	2	5	3	5	4	2	5
12	14	10	18	32	43	1	4	3	2	3	3	1	2	6	3	4	3	3
13	8	17	22	20	37	3	4	2	6	3	0	3	3	3	3	3	3	3
13	26	9	17	28	46	3	1	3	6	4	3	4	3	1	4	4	1	6
13	15	8	19	33	39	1	3	2	7	2	4	6	5	7	4	1	1	4
17	22	17	14	22	35	3	5	8	2	1	1	2	6	3	6	3	5	2
15	22	8	25	22	24	5	0	6	3	3	4	2	4	3	2	3	2	4
5	16	15	17	35	43	10	4	4	3	6	5	3	3	4	1	5	0	0
12	10	10	18	23	32	3	2	3	2	2	1	5	3	4	6	5	2	4
6	9	9	19	25	33	3	2	9	4	1	6	0	3	2	4	5	0	3
14	15	16	20	27	27	5	4	1	2	4	3	3	2	3	4	3	0	2
11	16	9	20	16	35	2	3	1	5	2	3	2	1	1	4	2	3	3
13	18	13	20	25	42	5	5	4	3	1	5	2	2	2	5	0	2	4
7	19	9	8	17	27	4	3	3	6	4	3	8	2	3	3	4	3	3
7	19	9	23	15	27	5	1	2	2	2	3	4	2	4	3	2	7	2
14	21	7	15	20	25	1	1	2	1	4	2	3	3	2	1	2	4	1
18	7	10	16	24	32	2	9	1	4	5	4	2	1	3	4	4	10	3
7	10	13	14	20	35	2	2	4	2	3	1	6	6	3	2	5	2	2
12	12	7	7	18	30	6	2	6	2	4	3	2	0	7	2	2	1	2
11	13	9	22	26	37	3	0	2	4	2	7	5	2	4	1	4	2	1
13	15	7	16	25	23	2	3	7	2	1	3	2	1	1	0	4	3	5
11	17	17	16	20	27	9	5	3	3	4	2	1	2	2	2	2	6	2
17	19	10	12	12	29	58	2	6	5	2	1	3	1	4	3	2	2	3
11	12	9	18	12	25	58	1	7	2	1	5	3	5	2	2	0	3	6
9	11	11	20	20	26	49	2	1	5	2	2	2	3	4	3	3	5	3
12	17	11	13	16	40	47	1	4	5	2	1	4	3	4	4	3	1	4
13	21	16	21	16	25	49	4	6	2	2	4	7	9	1	4	2	4	4
11	14	17	13	15	24	45	3	2	5	4	4	2	5	6	1	1	2	4
9	15	10	18	26	29	38	2	1	4	3	1	2	1	5	3	4	5	3
10	20	11	12	19	36	46	2	0	6	3	2	4	1	4	1	3	7	3
15	16	10	8	24	28	48	3	6	0	3	2	2	4	1	1	3	1	0
9	17	20	11	19	26	31	1	2	1	3	3	2	9	5	2	5	1	1
11	15	13	19	23	31	42	3	1	2	3	3	5	5	4	3	3	1	3
10	14	5	15	23	42	36	1	2	3	3	4	1	2	9	1	2	3	3
7	14	8	19	17	27	42	2	1	2	6	3	3	3	4	4	0	4	0
14	16	11	14	23	29	37	4	3	0	2	4	1	4	2	1	1	9	0
16	13	12	17	20	23	43	6	6	4	1	5	1	3	0	3	6	4	3
11	17	9	15	18	25	41	2	4	1	1	1	2	2	1	4	0	3	4
7	15	7	18	20	19	48	5	4	6	5	2	2	0	0	2	6	2	4
2	9	6	10	15	17	42	3	2	2	2	3	5	2	4	1	2	1	4
10	18	11	18	20	24	35	2	4	2	6	2	4	4	7	8	5	7	4
10	15	11	19	16	33	39	3	5	3	3	3	2	5	3	4	3	2	5
5	17	14	12	24	24	39	1	6	3	5	3	1	6	3	7	2	4	3
5	11	13	16	17	20	32	1	5	3	10	3	3	1	4	1	1	7	3
9	14	12	12	16	30	33	2	2	1	2	2	2	1	3	5	6	8	3
11	18	10	11	20	14	28	2	3	4	3	0	3	4	1	6	3	2	0
10	17	11	15	14	28	28	0	3	2	2	1	6	1	1	4	2	3	2
14	12	13	17	24	24	23	1	4	2	4	3	3	4	6	2	1	6	3
7	13	5	17	17	26	31	6	0	0	3	6	7	1	3	4	3	1	4
12	18	4	18	25	19	28	4	5	5	2	2	4	4	6	4	1	6	6
14	23	11	14	16	15	30	3	3	5	4	3	1	2	2	2	1	0	2
13	12	18	21	20	23	30	6	3	4	2	0	6	4	7	4	5	3	7
10	17	9	17	12	14	25	7	0	3	4	1	3	3	1	1	1	3	1
8	14	14	12	7	17	30	7	6	0	6	4	1	1	4	2	1	4	5
9	16	9	17	12	22	37	29	0	1	2	0	2	5	3	1	3	3	5
12	17	18	16	10	14	29	67	3	2	3	7	5	8	1	5	5	3	3
10	13	9	15	17	23	24	57	2	6	4	6	0	2	4	5	4	4	4
10	18	5	11	11	19	30	50	4	1	3	4	2	4	1	3	6	1	4
6	21	11	20	19	16	34	41	2	2	3	4	3	4	4	4	3	6	2
7	17	9	17	12	18	32	49	8	1	8	4	10	4	1	2	0	3	2
17	18	13	13	14	18	28	35	4	3	3	1	4	3	1	4	5	2	3
10	8	10	19	11	28	18	39	5	4	6	1	5	1	2	7	3	6	4
16	18	7	13	15	24	39	49	1	4	0	1	3	1	1	2	4	1	1
16	17	12	15	19	10	30	34	4	6	0	2	2	4	5	4	8	2	0
8	17	14	14	18	19	19	38	7	3	3	5	2	4	3	6	2	3	2
9	15	11	19	8	18	23	34	1	3	6	1	2	2	5	3	1	1	6
9	15	9	14	10	16	24	42	4	4	2	3	5	1	1	2	2	2	4
5	14	13	15	16	22	29	39	9	7	3	1	2	1	4	1	8	5	3
5	19	9	16	8	14	26	36	2	4	6	2	7	6	3	4	7	2	3
9	15	13	13	13	22	41	46	3	3	3	3	2	3	3	1	5	0	2
11	10	8	15	12	18	27	38	6	4	3	2	3	4	1	0	1	5	2
11	14	13	19	16	16	25	31	4	5	2	3	2	6	2	3	8	7	3
12	11	6	12	20	12	17	32	5	3	0	2	8	6	4	2	3	6	6
10	17	9	12	17	16	17	33	5	3	6	5	9	6	4	4	2	6	3
12	12	10	17	17	22	28	42	4	1	2	3	2	0	3	1	4	0	2
12	16	9	18	15	15	22	29	4	7	2	2	7	1	3	3	2	2	1
13	17	10	11	11	22	21	34	4	2	4	2	7	4	3	0	3	3	2
16	15	10	21	16	19	18	29	3	1	3	1	7	5	2	2	3	5	3
18	6	10	17	21	19	14	35	0	6	2	2	3	3	2	5	2	6	2
10	12	13	16	16	30	28	27	1	2	1	3	2	1	2	2	4	4	2
11	16	15	16	19	15	29	32	3	1	5	4	5	3	2	4	3	3	2
13	15	8	11	13	19	23	35	3	2	1	3	3	2	1	3	0	6	2
7	19	10	12	13	10	23	27	2	2	6	5	4	5	2	1	6	1	4
14	13	17	9	19	16	23	33	4	2	3	2	2	3	6	3	3	3	3
10	10	7	18	22	20	21	24	4	3	4	2	3	3	2	3	2	2	1
12	14	8	15	8	12	17	31	5	4	6	2	4	1	2	1	2	0	5
9	15	11	10	11	25	23	34	3	2	2	3	3	1	1	1	1	4	3
12	14	12	17	10	12	22	30	3	5	3	2	4	4	4	4	7	5	0
6	14	12	8	13	22	22	34	3	1	4	3	2	4	1	2	4	3	2
14	14	9	21	15	17	18	28	4	4	3	6	1	1	4	3	6	2	3
8	12	10	12	14	13	20	31	4	1	2	2	0	3	5	2	5	5	4
13	13	14	19	20	17	21	30	5	1	4	6	2	3	1	2	2	5	4
9	10	12	15	23	17	18	21	1	4	2	5	1	3	2	3	6	4	3
10	13	15	8	10	17	17	24	4	5	2	4	5	3	4	3	6	4	4
10	15	8	14	10	12	22	29	1	2	4	2	6	4	4	5	1	2	7
11	19	13	17	14	16	10	15	2	6	4	2	3	4	2	0	5	2	6
9	15	13	18	15	11	15	22	4	5	5	3	2	2	3	5	2	2	5
11	14	8	10	13	14	25	26	3	4	1	4	4	2	5	5	5	2	1
7	16	13	13	21	10	29	15	2	2	3	5	4	4	5	0	7	6	2
12	14	9	12	20	14	24	20	4	4	3	1	3	6	4	0	1	3	5
11	13	9	17	10	9	22	28	4	1	2	3	1	3	4	3	4	0	2
14	19	12	11	21	13	15	17	3	3	2	1	8	4	1	6	1	4	8
11	22	13	16	15	18	16	28	5	3	6	2	2	0	2	6	0	3	1
11	11	10	20	11	15	20	26	4	2	7	2	4	5	5	5	3	1	5
11	20	15	15	7	28	14	26	1	5	7	3	2	2	4	2	4	4	0
10	17	8	19	14	17	26	22	3	1	3	3	2	3	3	5	2	2	4
16	11	10	8	16	11	17	21	3	3	2	6	6	4	1	5	2	1	3
10	18	13	12	11	13	17	21	6	3	2	1	6	3	0	8	3	3	3
11	8	10	16	11	19	10	24	5	3	4	5	2	5	7	3	3	4	4
13	12	11	9	10	17	15	18	6	4	3	4	6	3	2	4	5	2	1
12	15	12	11	13	14	18	23	6	1	2	3	3	6	2	1	9	0	5
8	14	14	16	9	17	21	23	5	0	3	6	4	4	3	4	1	2	3
11	16	5	8	17	13	15	19	5	2	2	2	4	4	2	4	5	5	3
10	11	11	11	13	17	13	27	1	5	2	1	2	2	5	1	3	2	3
13	14	12	8	16	12	14	17	1	3	5	3	3	2	4	6	4	3	1
9	10	10	20	29	13	14	16	5	4	1	2	6	2	1	3	4	5	1
9	14	13	15	13	13	15	25	2	3	4	2	3	3	5	2	3	7	4
12	14	10	13	20	17	19	21	4	2	1	6	1	2	1	6	6	2	5
6	11	7	16	13	14	13	19	2	3	3	5	4	3	3	2	4	4	5
9	9	6	13	15	11	16	22	2	3	3	2	3	3	4	3	2	3	0
9	14	15	11	13	13	19	22	6	1	5	2	4	2	2	2	3	2	3
15	12	10	13	12	12	17	17	59	4	2	2	3	0	6	4	2	5	4
13	7	7	13	16	15	15	23	50	2	4	0	3	3	4	3	4	0	4
11	10	10	12	14	7	18	20	35	3	4	1	6	5	5	4	2	5	2
9	18	8	15	15	13	12	31	54	1	4	3	4	5	0	3	3	5	4
11	14	6	13	11	13	15	20	46	3	6	3	3	1	2	3	2	5	3
17	18	16	12	14	14	21	22	43	6	3	1	2	3	6	3	5	2	2
21	20	11	18	19	14	17	17	36	2	5	0	6	7	6	3	3	1	3
10	14	9	18	16	17	10	13	38	1	4	1	2	2	4	3	3	4	6
7	9	9	9	23	13	13	19	45	3	2	6	6	4	2	2	3	0	1
12	16	8	10	15	17	15	24	32	1	2	4	2	3	2	3	2	6	3
11	13	9	9	15	11	13	17	33	5	4	5	0	5	6	2	5	2	0
7	18	12	13	11	4	17	29	41	3	2	3	3	1	4	4	5	3	5
8	12	19	12	11	15	16	14	39	3	9	4	3	2	4	2	3	2	2
7	22	7	15	19	13	11	21	27	3	8	6	5	4	4	1	3	4	5
8	12	14	17	9	20	14	17	32	6	4	2	3	4	3	2	4	3	3
9	8	11	14	19	9	11	24	22	7	1	4	3	4	5	2	2	4	2
13	15	9	14	15	14	12	13	37	2	4	1	3	3	4	7	2	2	2
13	11	15	13	7	11	16	25	22	4	3	1	2	1	0	3	1	6	4
12	9	11	16	13	18	24	15	38	6	2	5	4	8	1	4	6	4	2
15	12	4	14	17	9	19	19	38	1	1	0	4	3	4	0	5	4	0
11	12	10	20	10	18	16	20	30	6	3	2	4	3	6	1	0	6	0
9	7	11	11	14	15	21	18	38	1	3	3	2	0	2	3	2	4	4
9	14	6	12	9	17	15	16	40	4	1	4	3	2	1	1	4	1	2
14	13	13	13	13	14	12	16	33	0	7	2	2	2	0	4	5	2	4
15	10	13	15	18	13	17	21	26	3	4	1	2	7	4	4	3	2	0
13	9	9	14	9	14	14	27	36	4	4	0	3	3	2	3	1	0	6
8	12	7	13	13	23	21	9	27	5	3	2	4	5	7	4	2	6	5
2	13	2	11	17	13	17	12	27	4	3	2	4	3	1	4	1	2	7
2	12	5	12	14	14	8	24	30	5	1	3	3	3	6	4	1	3	3
0	12	4	12	12	17	13	23	28	3	3	4	2	5	2	0	3	2	5
2	16	2	11	11	12	21	14	24	4	1	3	3	4	3	3	2	1	6
3	15	1	11	18	20	10	17	23	3	3	2	2	3	4	6	6	2	4
2	14	7	11	16	10	17	18	31	5	3	5	2	2	1	1	4	5	2
3	14	4	8	16	17	7	20	41	31	6	3	4	4	3	5	5	5	3
1	18	6	10	12	17	13	13	22	62	3	8	2	2	1	2	6	6	0
7	12	7	12	9	17	14	13	22	41	3	4	4	1	4	0	3	3	2
1	14	2	10	12	15	10	21	31	41	0	2	4	3	3	3	3	3	1
6	10	5	16	23	12	19	9	27	36	6	3	6	4	1	4	3	4	3
0	14	3	9	11	7	17	19	16	43	1	5	1	1	5	3	4	5	7
3	13	1	16	15	11	16	13	21	47	6	4	4	3	1	1	4	2	3
3	11	3	14	12	12	13	17	20	41	2	5	3	0	2	4	5	3	3
2	8	0	7	16	17	12	26	29	42	2	2	2	1	6	4	4	2	3
0	16	0	12	13	14	21	20	29	41	3	3	1	2	3	2	7	1	4
3	7	2	6	14	12	14	17	18	40	7	3	3	2	3	8	5	1	5
8	10	3	13	18	12	19	13	20	32	3	5	3	2	3	3	3	0	1
2	12	3	16	15	14	15	17	37	34	0	5	2	4	3	2	7	1	3
4	11	2	13	12	8	18	22	27	47	1	3	4	3	1	1	3	0	4
0	13	7	17	14	12	22	16	23	34	2	4	4	4	3	3	1	4	6
0	17	3	18	15	18	11	16	19	44	2	7	2	4	4	3	2	2	5
3	9	4	14	17	15	12	11	15	36	2	2	1	1	2	4	6	3	4
1	10	2	21	16	12	22	20	17	35	4	6	3	3	3	2	1	3	2
2	7	1	15	15	9	10	13	27	31	5	3	3	1	3	1	1	1	6
2	12	4	19	18	10	16	14	26	37	2	4	8	6	1	4	7	2	2
2	12	1	13	16	13	14	16	23	32	1	4	9	2	2	3	3	3	2
3	10	2	12	13	13	12	14	13	30	1	7	2	3	1	1	3	2	3
7	16	5	14	12	13	14	21	29	23	0	5	2	7	4	5	5	2	4
1	12	1	14	11	10	16	11	22	33	4	2	3	4	5	2	4	2	7
6	10	6	12	9	12	17	15	19	32	2	8	3	6	4	4	2	4	6
3	20	4	11	10	11	16	21	33	36	0	2	7	0	5	5	5	1	1
3	11	6	15	12	12	19	12	26	32	3	4	3	3	4	3	4	3	3
2	12	2	9	13	15	17	9	18	44	4	6	3	3	4	5	1	4	2
1	8	1	13	10	10	12	18	18	26	3	4	5	1	3	3	4	2	2
5	7	3	17	10	13	15	12	26	19	3	2	5	2	2	4	6	1	3
0	19	2	17	17	8	17	21	19	19	3	2	2	0	4	3	3	1	2
6	18	8	10	10	17	11	19	20	26	2	1	3	2	1	3	3	2	6
4	17	2	15	17	12	11	12	26	24	5	4	6	2	5	4	3	0	6
3	9	2	11	13	10	17	16	22	26	0	1	2	4	2	3	4	3	1
1	13	7	7	21	13	17	18	27	31	26	1	3	5	2	5	4	3	3
3	14	3	9	15	7	16	13	17	29	69	4	7	3	1	4	5	2	1
6	10	1	16	15	8	12	9	12	29	38	2	3	2	2	6	2	5	4
4	12	0	11	11	14	12	11	24	20	51	5	3	3	3	4	5	3	3
4	12	4	16	12	10	13	12	18	32	43	4	2	2	5	6	3	3	3
3	12	3	12	10	9	11	14	16	22	37	3	2	5	1	4	6	1	6
0	11	3	14	19	14	8	12	12	18	33	1	3	3	1	0	4	3	3
2	22	3	9	10	13	12	14	22	26	36	4	1	2	2	6	2	4	2
0	9	5	12	15	11	9	10	22	23	52	6	4	3	5	4	5	1	3
3	13	4	8	13	13	13	16	21	26	48	2	4	3	2	4	4	5	7
6	15	5	13	8	7	12	7	14	16	29	4	4	1	1	1	2	4	3
2	10	2	13	14	11	18	15	13	35	32	5	3	3	5	1	3	5	1
5	20	7	10	4	12	13	13	17	29	35	0	6	4	3	1	3	3	4
1	4	2	14	5	12	13	11	18	21	33	7	3	4	1	3	1	4	1
6	9	4	11	8	12	9	15	10	23	46	3	4	3	6	2	2	1	6
2	10	3	14	10	18	9	16	16	26	48	1	3	5	2	1	2	6	4
4	13	5	15	14	9	17	18	14	21	39	3	3	1	2	4	5	3	1
1	6	1	12	14	13	10	11	16	28	28	3	3	12	0	1	5	3	1
4	16	3	12	9	15	17	15	13	23	39	5	4	1	5	4	2	5	4
5	7	0	9	9	14	15	11	25	19	32	3	4	5	3	2	4	5	3
4	15	4	8	10	9	6	13	13	20	30	1	3	4	0	4	4	5	0
5	15	3	18	11	11	13	23	20	18	33	4	5	2	1	2	5	1	4
2	15	5	8	13	15	13	21	13	16	33	2	3	2	5	6	1	0	3
2	6	3	13	14	10	15	15	9	27	26	2	2	3	4	2	7	1	5
8	9	5	12	13	11	14	7	9	27	33	2	4	2	9	3	4	1	1
2	12	5	9	11	14	14	9	17	26	38	7	4	4	4	3	2	3	2
2	14	2	11	8	13	12	17	21	23	23	6	5	3	5	3	3	2	3
4	16	5	3	15	8	15	18	22	17	22	4	3	6	5	4	3	3	4
3	12	0	14	14	11	16	14	19	15	38	4	3	2	1	2	2	1	2
4	11	2	9	6	13	8	17	22	10	25	9	5	1	4	1	2	8	5
2	6	0	11	12	12	10	12	18	8	29	3	4	1	2	2	2	4	3
3	17	1	8	12	12	19	11	18	30	24	6	1	3	1	2	3	1	2
20	19	1	12	10	13	18	17	17	28	25	11	2	3	3	3	6	1	2
65	90	6	7	9	8	9	13	11	12	31	44	3	4	1	3	4	7	4
52	55	3	11	14	12	8	8	10	29	30	35	1	3	3	1	3	3	3
70	78	4	10	15	26	8	20	20	17	23	41	3	2	3	2	5	1	0
61	64	1	14	10	11	9	14	12	16	26	49	4	2	3	5	4	2	5
53	70	0	14	15	14	9	20	19	22	24	45	2	1	3	2	1	6	2
52	71	1	20	12	13	13	19	17	24	19	39	3	3	5	5	1	2	2
37	57	4	11	14	16	10	12	21	18	19	48	4	5	2	2	2	5	4
53	48	3	6	8	14	12	20	19	22	18	49	2	3	5	5	3	1	3
49	46	3	11	13	10	12	15	16	17	26	22	1	2	4	6	3	1	4
53	59	3	11	14	16	15	13	23	20	25	40	1	1	4	2	0	5	4
31	55	3	7	10	11	14	17	11	16	19	38	5	4	4	0	4	1	1
45	53	4	14	11	14	15	10	22	22	21	27	2	0	3	4	6	5	5
44	44	1	17	11	17	12	18	9	14	23	24	3	7	2	5	1	1	3
43	60	3	12	15	9	14	16	15	17	20	31	1	0	2	2	2	3	6
45	44	3	12	11	11	14	13	17	17	29	31	1	2	6	3	4	7	5
50	62	2	13	17	16	10	10	15	18	24	32	2	7	1	5	3	4	3
47	36	7	12	15	8	11	19	19	15	16	21	1	4	2	4	4	1	2
52	64	4	11	10	14	19	13	12	17	28	30	6	3	3	5	1	2	5
58	49	4	11	13	14	16	13	12	17	26	29	3	6	2	5	2	3	6
37	51	3	13	13	13	14	11	21	20	26	33	2	1	3	5	2	1	4
35	53	4	9	6	12	12	13	17	19	21	30	3	2	3	2	4	2	2
40	50	4	9	10	16	17	19	12	10	26	37	2	3	3	3	2	4	1
41	39	0	12	17	8	24	13	19	19	24	30	3	5	5	2	1	2	2
38	44	1	9	11	15	19	12	18	17	29	34	3	0	3	2	0	2	4
38	30	4	10	13	14	13	20	12	19	23	25	3	3	3	1	5	2	3
34	34	3	11	12	13	13	12	14	12	16	24	3	3	3	3	3	5	6
37	35	3	10	9	21	11	13	21	19	20	28	4	2	6	4	0	4	5
42	56	4	11	16	16	12	18	13	17	23	19	2	7	2	4	1	2	2
34	46	2	13	12	10	7	19	15	21	16	29	1	1	1	2	3	3	9
36	32	4	16	15	13	13	18	19	14	22	28	3	3	2	4	2	5	4
33	34	3	13	13	14	14	9	21	15	21	20	1	2	2	2	2	3	2
33	40	2	17	8	8	13	12	13	16	22	36	2	6	4	2	2	8	5
41	31	5	9	13	23	17	8	10	22	13	29	4	2	1	6	2	2	3
29	50	71	85	14	17	9	11	15	9	18	24	15	3	3	3	6	2	2
35	35	64	63	13	20	13	18	12	21	14	37	64	5	1	3	1	2	5
29	25	48	68	11	17	19	12	16	11	23	34	39	4	2	5	2	4	2
24	26	40	71	18	12	13	10	16	13	17	25	41	2	2	3	3	4	2
32	31	42	58	13	12	16	18	17	14	10	18	46	5	3	4	0	4	1
37	23	51	72	12	13	13	10	21	18	13	22	58	3	4	5	7	6	4
38	34	60	61	10	19	18	11	9	17	19	26	38	1	2	6	0	5	1
28	32	48	63	11	15	14	14	15	17	11	24	33	3	3	4	3	1	1
31	34	42	65	10	10	9	9	17	15	14	24	30	3	1	5	3	3	2
28	26	54	55	19	8	17	18	14	17	16	27	50	3	2	3	5	3	3
22	24	40	61	16	11	14	15	23	19	11	20	30	2	2	1	6	1	0
25	28	47	51	14	12	21	14	17	12	21	20	26	6	3	6	2	3	3
32	28	42	53	13	9	19	16	8	20	17	23	36	6	6	2	4	4	1
27	23	34	63	9	8	13	10	14	9	11	22	41	4	3	2	3	2	5
30	28	40	53	17	20	11	15	22	15	15	17	35	7	3	4	7	1	7
34	31	49	51	10	18	20	9	19	10	20	17	35	4	2	4	6	4	2
23	24	35	63	15	8	12	17	19	21	15	30	29	3	3	2	3	3	5
14	29	47	40	7	22	12	15	7	15	16	22	31	4	1	5	4	2	2
31	33	28	52	16	8	6	10	10	10	17	17	38	1	3	1	5	3	1
20	37	50	42	15	11	18	10	14	11	14	22	30	4	5	5	5	1	5
30	27	41	27	11	18	14	7	16	11	19	18	34	1	5	3	0	4	5
21	27	34	38	11	11	9	11	16	14	21	22	37	2	3	1	2	3	5
24	26	31	41	18	14	12	13	14	18	15	21	35	4	1	2	3	7	4
19	20	43	42	9	14	11	8	11	15	13	22	35	4	4	1	3	3	3
32	15	26	31	14	9	17	19	21	16	16	21	31	2	3	4	3	3	5
17	19	35	49	10	8	12	13	12	13	17	21	23	2	3	4	2	6	3
24	27	38	39	15	15	13	18	7	13	15	19	41	3	4	1	2	1	5
24	15	26	36	13	10	14	13	17	19	15	15	26	2	4	0	7	0	3
20	24	39	39	9	14	11	6	11	16	19	24	36	7	8	7	2	5	4
17	19	35	41	13	10	8	10	9	20	15	19	29	2	4	3	5	1	3
25	23	33	36	13	9	12	9	8	16	16	24	34	1	3	3	2	7	2
23	17	35	30	12	17	10	14	14	12	12	15	22	3	3	3	4	2	1
27	32	33	31	13	11	10	13	12	12	15	20	30	1	4	0	2	3	4
16	30	21	20	16	17	10	14	17	14	16	20	38	21	3	6	4	2	1
22	20	35	33	88	13	16	12	19	8	21	19	26	66	6	2	4	3	2
20	19	37	34	61	11	8	14	14	14	16	23	21	40	4	2	1	2	0
26	28	43	31	64	12	15	12	20	11	21	22	19	39	1	0	6	3	3
23	19	27	19	82	11	15	6	17	18	10	13	31	40	2	2	3	3	3
23	22	22	29	70	14	17	17	11	18	14	20	23	37	5	5	4	4	7
16	27	26	31	57	11	17	14	16	20	13	17	22	37	0	2	1	3	3
17	14	30	31	54	11	11	13	14	13	19	12	22	43	3	2	1	6	5
18	21	22	37	56	11	11	15	17	12	14	18	25	30	1	2	4	3	1
10	24	23	31	62	11	13	17	18	9	20	15	24	40	3	0	0	2	4
27	26	29	32	45	13	10	14	15	15	16	17	25	37	5	4	1	3	5
12	14	31	15	58	8	18	10	13	16	9	19	22	29	2	3	2	4	6
20	21	32	35	57	14	14	11	18	10	17	20	18	43	1	4	3	0	3
13	24	34	23	42	12	9	15	7	23	20	22	23	33	3	3	2	5	3
23	30	17	31	52	13	14	18	11	14	21	10	17	37	7	3	3	2	1
13	14	20	27	48	11	15	11	18	16	17	16	26	42	3	2	3	2	6
17	17	21	25	53	6	13	17	9	14	17	13	12	34	2	2	3	2	3
20	16	34	24	41	11	16	14	14	18	11	15	23	35	1	3	2	1	4
21	19	24	22	44	10	11	13	15	14	13	13	28	19	1	1	1	1	4
23	9	21	25	54	12	7	10	14	14	17	22	22	36	1	0	3	4	0
24	23	21	19	44	14	15	9	10	13	19	20	25	33	4	4	3	7	3
21	19	30	31	35	5	14	15	12	15	8	10	25	39	2	4	2	5	6
29	16	23	20	52	10	14	15	18	15	11	12	26	41	2	2	1	2	2
15	14	20	23	42	14	13	11	19	17	10	14	21	31	3	1	1	4	2
18	16	21	28	43	12	9	7	12	11	15	17	16	28	5	0	2	2	2
14	11	21	13	46	11	13	17	12	13	11	11	20	30	0	3	5	2	2
23	16	25	25	43	7	8	16	16	22	19	25	18	26	1	2	4	6	5
9	25	22	16	39	9	10	11	14	14	16	17	13	28	1	2	2	1	4
20	11	22	23	40	17	10	12	12	10	13	15	25	30	3	4	1	2	1
11	10	24	25	40	11	16	15	15	11	14	15	19	41	0	5	2	2	5
24	27	28	20	40	16	15	11	13	15	13	10	30	23	1	1	3	5	3
8	8	17	28	42	25	10	18	17	19	14	17	19	17	3	6	0	1	1
16	11	18	13	37	12	13	16	16	11	18	17	16	30	3	1	9	2	4
18	17	21	19	47	25	12	11	8	13	13	21	18	34	2	7	6	2	1
22	14	22	13	37	82	9	13	8	12	16	16	21	17	43	2	4	1	3
12	14	24	18	33	62	11	11	14	17	9	15	15	19	44	5	5	3	5
18	15	19	28	33	76	18	14	16	12	17	20	26	27	40	4	2	2	5
21	17	17	8	28	73	14	18	14	9	12	17	21	28	49	1	2	2	6
20	16	24	12	38	50	13	7	9	14	9	14	17	27	41	4	6	0	1
17	14	23	16	33	57	7	9	9	10	6	16	13	21	43	5	6	3	4
11	9	23	14	27	62	15	12	14	15	18	18	18	19	37	1	1	2	4
17	11	18	20	30	67	10	17	14	14	14	18	18	15	28	4	4	1	2
17	25	22	26	37	50	9	16	14	14	17	14	14	24	28	1	4	1	2
25	13	14	19	23	64	15	8	20	18	11	14	19	22	36	1	0	2	0
17	11	18	14	18	49	12	11	17	13	13	19	23	30	44	5	2	3	4
21	12	30	19	31	60	7	11	23	12	14	18	9	24	43	3	2	4	1
13	8	21	16	13	54	12	9	15	18	18	19	18	32	36	2	5	7	2
14	18	18	16	26	52	20	14	8	16	12	17	14	28	23	2	3	2	5
8	15	22	17	23	45	7	14	10	17	13	18	20	38	48	7	1	1	3
26	10	17	18	30	46	17	11	20	13	23	12	9	19	34	4	5	3	0
15	16	19	16	22	36	8	16	16	8	14	11	17	22	26	3	5	2	3
22	13	14	18	30	33	10	18	14	18	21	15	11	23	38	2	4	5	4
22	10	25	11	30	50	18	16	26	11	19	14	21	29	31	3	1	2	1
16	16	17	16	32	41	11	13	16	16	13	15	20	19	40	5	0	5	6
10	16	18	12	23	48	10	21	17	24	8	20	10	23	29	5	2	1	3
9	12	19	18	19	43	13	10	16	12	8	17	16	18	25	2	5	0	1
15	18	20	23	34	47	11	10	13	11	10	22	11	21	31	5	5	3	3
16	13	20	12	22	39	11	13	13	12	18	13	15	22	25	2	1	1	1
18	14	20	19	28	40	21	6	9	6	14	16	19	19	36	7	3	2	6
19	17	8	23	24	46	16	16	13	12	12	12	14	14	17	2	2	5	1
19	19	23	15	18	35	13	14	11	6	17	20	12	26	26	2	3	1	2
21	12	15	11	21	36	9	18	14	14	26	14	20	21	26	4	4	2	3
7	13	16	18	19	43	12	15	11	13	11	19	19	26	26	3	1	0	6
10	19	14	16	30	43	9	9	6	9	18	16	16	14	28	4	3	3	2
12	10	7	13	22	39	7	16	11	16	14	11	10	28	22	6	4	3	4
13	16	22	15	15	38	16	13	18	14	17	9	14	16	36	1	5	3	0
15	12	16	12	22	38	16	14	17	15	15	11	9	9	25	17	7	3	3
17	14	16	12	12	36	18	5	16	15	12	19	18	15	21	59	4	3	4
19	13	12	17	27	41	84	8	12	12	17	17	12	16	22	43	3	4	2
12	15	18	13	22	34	81	11	10	21	11	20	13	22	26	63	2	3	2
11	15	20	7	20	25	55	12	6	22	13	13	25	22	26	34	3	0	3
17	11	13	22	22	38	66	13	16	12	17	10	16	22	20	43	3	2	5
21	13	21	14	20	32	69	15	10	13	16	13	17	23	25	33	4	2	1
14	8	13	19	22	34	59	17	15	10	23	9	13	23	21	28	3	3	5
15	14	18	19	20	34	55	8	8	16	18	20	18	18	26	32	3	4	1
20	7	12	13	19	26	53	7	11	13	11	14	13	17	26	49	5	3	1
16	14	8	22	13	40	54	20	13	8	14	14	14	20	24	33	6	2	4
17	11	11	21	17	29	63	9	11	17	10	15	14	23	29	33	2	4	4
15	13	19	18	12	33	66	14	17	9	12	21	17	17	23	33	2	0	3
14	19	15	26	14	23	57	9	9	9	23	10	11	17	32	36	2	6	3
14	13	19	15	22	22	48	19	13	13	19	18	15	15	23	30	7	5	2
16	8	14	19	21	27	63	12	12	10	14	17	14	14	27	38	1	2	2
13	10	17	14	18	21	43	11	10	11	19	16	10	24	22	35	3	2	2
17	9	15	11	16	46	49	19	14	10	12	16	11	8	28	34	3	5	5
15	11	18	16	16	21	43	9	12	10	8	16	11	20	20	26	1	3	4
9	14	10	12	18	27	51	9	17	13	9	17	22	16	13	39	4	2	1
18	11	18	23	23	25	32	18	10	17	11	13	13	18	16	24	1	2	4
15	10	19	16	10	20	39	12	13	17	10	12	20	16	18	30	4	3	8
17	12	12	13	11	26	44	8	8	18	18	10	20	20	21	32	3	5	3
11	15	16	7	22	31	38	15	20	11	16	14	14	16	17	37	4	5	3
14	15	12	12	17	30	41	13	15	15	16	16	10	14	19	36	3	1	6
18	7	11	20	20	22	32	4	13	15	12	11	17	20	20	26	4	5	1
17	10	15	8	20	22	36	20	12	17	16	12	12	23	17	25	2	4	6
12	11	17	20	16	12	42	13	7	20	14	15	16	12	19	34	3	3	5
13	17	17	8	24	18	36	13	10	17	12	16	21	9	20	24	3	3	4
18	11	18	11	17	22	39	10	11	18	12	15	22	12	19	21	3	1	5
23	8	14	16	12	19	32	17	12	9	20	19	17	13	16	38	2	1	4
12	14	21	10	12	14	39	24	15	19	10	8	12	29	18	30	2	3	2
17	21	17	20	23	18	31	18	12	10	12	13	17	9	16	31	2	4	2
14	15	12	19	17	22	46	19	12	20	9	12	11	17	29	30	16	3	4
16	14	17	18	12	14	36	24	11	9	9	11	8	19	15	25	52	1	6
17	12	16	5	10	24	28	83	14	12	12	6	17	12	19	30	39	3	7
13	15	15	12	11	16	28	67	15	3	17	13	18	11	12	17	44	3	2
18	18	11	18	17	20	39	52	10	9	12	12	15	14	23	40	41	3	3
21	14	20	13	10	19	31	53	23	19	15	9	22	15	14	24	43	1	4
17	17	17	14	12	17	33	67	13	9	7	19	16	14	17	28	33	5	4
18	10	13	14	17	21	32	60	5	10	11	18	20	11	18	21	35	4	3
8	14	19	7	12	21	34	50	8	8	14	11	19	17	26	18	27	5	5
18	17	13	10	13	14	20	54	11	11	10	18	11	15	15	21	35	2	4
17	11	15	8	12	20	31	60	17	15	13	12	9	14	19	18	35	4	3
17	4	14	19	10	19	26	69	16	14	11	12	12	9	15	24	25	2	1
15	11	19	13	13	12	27	53	23	15	4	10	15	10	19	29	24	2	4
15	14	14	5	14	16	23	43	15	12	17	8	17	16	14	25	34	1	5
14	14	15	11	12	26	31	43	10	15	13	14	11	27	11	18	36	2	4
19	12	16	11	14	22	29	54	12	9	11	12	11	9	13	13	37	2	0
15	9	13	14	17	15	26	62	12	12	9	16	15	6	16	25	25	1	1
10	12	15	11	17	16	15	56	12	12	9	16	9	21	15	17	40	2	1
14	17	19	8	13	14	20	47	15	13	8	19	6	11	20	26	34	5	1
11	8	12	11	14	10	23	53	13	12	13	19	12	18	19	21	30	2	5
17	15	12	9	11	16	27	39	15	11	13	9	17	8	27	22	41	2	5
12	13	17	7	15	19	27	43	12	15	12	11	14	14	22	19	28	5	5
16	10	18	15	11	13	22	44	18	15	11	12	8	15	14	26	32	5	5
17	17	11	13	15	14	21	58	12	18	15	11	14	11	14	16	17	2	1
15	9	21	14	11	18	21	45	9	12	11	14	15	20	17	23	31	4	3
6	8	17	18	16	18	20	28	8	10	17	9	20	11	22	21	34	4	1
12	17	16	13	11	18	31	37	16	14	10	14	9	16	13	28	31	2	4
