#Saved Data from the class pulsed_measurement_logic on 18.11.2022 at 17h07m45s.
#
#Parameters:
#===========
#
#bin width (s): 5.0000000000000001e-09
#record length (s): 8.6824999999999996e-05
#gated counting: False
#Number of laser pulses: 156
#alternating: False
#Controlled variable: [2e-08, 4e-08, 6.000000000000001e-08, 8e-08, 1e-07, 1.2e-07, 1.4e-07, 1.6e-07, 1.8e-07, 2e-07, 2.1999999999999998e-07, 2.4000000000000003e-07, 2.6000000000000005e-07, 2.8e-07, 3.0000000000000004e-07, 3.2e-07, 3.4000000000000003e-07, 3.6000000000000005e-07, 3.8e-07, 4.0000000000000003e-07, 4.2e-07, 4.4e-07, 4.6000000000000004e-07, 4.8e-07, 5.000000000000001e-07, 5.2e-07, 5.4e-07, 5.6e-07, 5.800000000000001e-07, 6.000000000000001e-07, 6.2e-07, 6.4e-07, 6.6e-07, 6.800000000000001e-07, 7.000000000000001e-07, 7.2e-07, 7.4e-07, 7.6e-07, 7.8e-07]
#
#Data:
#=====
#Signal(counts)
5
6
2
11
8
9
7
8
5
6
4
9
2
4
4
3
16
40
38
41
36
39
31
33
38
31
38
24
35
33
25
27
16
24
26
19
24
15
23
17
22
23
31
8
24
14
24
22
14
19
27
19
24
17
10
15
15
14
14
14
16
17
24
14
17
9
19
8
17
9
14
11
12
17
18
20
20
7
14
14
14
12
10
8
18
17
14
18
19
17
13
20
13
14
12
12
14
16
9
15
18
15
17
14
9
14
13
11
14
10
8
8
14
16
15
14
13
26
15
9
11
21
13
13
15
13
13
16
12
12
15
13
13
11
9
18
29
105
65
86
86
75
74
62
66
73
71
62
43
60
34
35
46
52
53
47
44
40
56
33
37
47
39
30
27
30
28
30
25
33
34
29
39
24
27
21
31
37
25
26
31
20
23
26
20
28
21
26
20
21
19
26
24
26
26
23
22
31
21
21
23
21
13
25
19
22
22
16
27
22
13
23
24
20
17
17
21
18
21
23
24
23
11
20
24
20
19
15
23
23
25
22
26
22
12
15
19
21
22
26
17
18
18
19
16
23
31
14
22
21
21
18
23
20
29
16
20
6
5
14
8
27
31
20
15
15
15
25
21
24
25
23
12
22
18
25
17
30
25
27
20
22
22
16
18
15
19
16
26
15
17
26
18
28
23
24
17
28
24
21
22
20
21
22
14
22
17
17
24
14
24
23
16
17
29
20
28
14
14
19
12
24
20
19
23
12
22
18
16
13
13
26
19
26
28
31
24
22
21
21
18
13
20
25
23
21
19
17
16
23
24
25
20
23
19
27
21
23
22
29
18
16
17
18
15
23
22
13
23
14
28
29
24
13
20
18
17
15
23
21
44
99
90
75
88
70
62
57
59
47
60
52
55
41
40
44
39
38
49
39
35
28
25
39
27
37
31
29
24
19
21
30
28
18
19
21
22
26
20
23
16
14
10
25
16
12
15
22
21
17
11
20
16
20
15
13
17
7
9
14
15
5
14
9
15
10
19
16
7
12
15
15
15
10
14
8
10
20
16
10
18
16
12
11
15
12
9
16
11
14
16
12
12
17
12
12
10
15
13
18
13
11
10
15
23
10
18
13
11
17
16
11
10
10
12
9
13
15
8
12
28
110
105
93
104
81
88
52
68
43
66
43
53
55
52
49
44
44
34
30
49
41
43
35
40
33
34
36
39
41
37
33
38
23
22
29
37
19
29
22
29
20
25
19
23
26
26
25
24
22
23
19
22
21
23
22
23
23
24
20
15
18
17
24
24
24
22
14
22
22
24
24
16
28
22
28
27
22
23
24
18
22
16
20
14
15
17
13
19
15
20
22
20
22
14
20
19
18
20
26
16
16
26
14
22
28
23
22
19
23
16
18
21
19
26
35
18
26
17
21
15
14
5
7
15
6
3
6
6
33
26
15
24
13
25
23
27
23
17
14
18
24
18
21
17
23
21
25
24
20
22
24
19
17
22
24
16
11
27
22
18
22
24
14
21
13
32
15
18
10
19
21
27
16
17
21
16
29
22
15
16
20
18
34
13
15
19
14
19
28
23
19
15
27
21
12
18
21
15
16
18
18
17
23
24
18
19
22
24
14
21
28
17
21
21
19
13
17
20
24
24
17
25
19
16
17
24
17
16
25
24
24
17
18
17
20
26
20
20
16
23
23
23
21
16
20
19
23
49
94
87
98
85
76
61
75
55
73
64
55
45
47
34
45
50
27
40
31
43
33
28
45
24
27
29
25
38
34
26
18
25
15
17
23
22
28
17
19
19
15
23
17
15
20
17
10
18
20
17
10
13
19
14
14
12
19
18
6
16
16
14
10
21
18
17
12
5
18
14
22
16
14
7
8
21
18
17
16
10
17
21
15
11
11
15
18
14
12
13
7
26
9
17
13
13
12
17
11
10
15
10
19
14
18
9
11
18
10
13
10
15
5
23
16
15
12
14
15
29
116
92
94
70
80
88
80
75
62
60
69
56
50
49
51
54
58
51
48
40
41
38
36
28
39
29
35
44
31
32
26
26
22
24
27
20
23
28
16
32
23
14
18
34
20
27
23
35
28
16
28
25
30
14
20
18
20
24
24
16
13
20
25
20
15
21
22
17
30
21
27
26
24
24
26
27
20
21
16
18
15
15
19
25
24
22
22
16
21
22
19
15
15
23
23
22
20
19
15
23
19
15
27
16
15
24
24
20
17
23
24
17
16
22
22
21
20
16
17
18
12
8
9
8
8
6
5
7
4
8
3
12
29
23
25
29
25
13
28
20
20
19
22
35
24
16
17
15
17
26
22
21
26
15
22
17
18
26
12
22
27
21
27
24
22
21
22
18
22
19
17
17
17
19
14
22
24
11
17
20
28
26
13
12
24
18
21
13
20
12
20
20
36
27
14
23
26
23
18
16
27
23
25
25
19
18
27
17
25
20
29
23
12
16
15
20
15
21
14
24
15
21
28
21
16
17
18
20
29
17
23
19
14
18
14
28
20
26
15
20
29
20
22
19
20
19
25
21
16
18
26
32
92
79
73
63
61
73
67
57
67
42
48
49
45
44
50
44
52
37
30
36
33
30
32
32
38
33
32
27
26
23
19
23
23
22
30
21
18
22
17
15
17
16
19
22
19
16
22
15
11
11
17
12
18
16
21
15
14
16
7
11
9
19
20
17
19
15
14
11
15
15
16
12
15
16
14
18
12
11
15
20
18
9
14
10
11
12
14
15
12
17
14
18
13
14
13
11
14
17
15
16
9
16
13
14
8
16
16
11
15
18
16
10
16
6
13
17
14
12
14
28
111
102
91
77
73
75
79
67
61
70
66
50
82
51
48
57
47
42
45
51
43
36
49
38
29
32
24
25
41
27
28
23
23
35
32
19
28
26
22
23
32
20
17
26
28
28
18
24
33
17
28
23
22
16
16
30
20
24
21
17
23
19
10
22
21
23
13
22
24
23
23
17
23
26
20
19
23
14
28
20
25
15
23
22
24
14
21
26
18
22
22
16
18
25
17
18
19
13
13
19
13
18
21
27
17
20
19
20
19
33
14
22
19
22
24
21
23
18
22
23
10
5
6
12
13
10
13
9
9
9
6
8
7
6
11
10
37
28
19
16
26
20
30
18
20
15
15
7
26
24
20
16
25
22
24
19
23
21
19
26
28
27
22
19
28
28
18
25
22
18
25
23
22
27
16
24
22
12
25
23
9
25
16
21
16
27
20
22
19
18
19
23
27
20
25
20
21
20
23
28
19
16
15
28
19
22
15
16
23
21
21
19
22
26
17
20
11
17
16
22
14
26
22
22
15
24
15
24
13
23
18
19
19
20
17
17
20
24
19
19
24
31
27
19
16
17
24
15
23
23
24
19
27
26
20
35
93
91
92
65
73
62
61
56
64
55
65
56
50
68
45
50
35
42
40
36
36
33
37
16
32
28
26
38
17
27
20
24
20
20
18
28
24
18
27
22
25
19
26
15
19
23
19
17
12
15
14
16
18
14
11
18
17
13
16
13
10
19
18
12
11
17
16
17
20
8
23
11
13
15
22
12
21
14
6
13
14
14
14
11
12
10
17
13
12
17
18
16
19
10
13
14
20
10
10
19
13
22
9
15
15
21
8
13
15
12
15
10
12
20
18
14
20
9
10
32
114
107
98
103
79
77
70
59
73
62
69
69
50
55
33
52
37
38
45
39
44
41
43
34
46
35
33
30
38
24
24
27
33
17
19
22
28
26
33
25
16
24
27
30
25
27
20
18
23
20
32
25
27
16
23
20
25
18
20
25
16
22
27
20
25
22
25
20
25
22
26
14
24
32
24
23
23
14
13
24
14
18
17
17
18
28
18
26
20
13
20
17
27
21
21
21
18
13
28
22
29
26
21
21
31
23
22
33
31
22
16
22
20
20
19
20
20
15
25
23
8
9
8
8
6
7
14
2
6
7
13
5
5
5
7
4
8
11
4
16
29
35
24
23
29
35
27
28
32
35
24
24
19
23
22
25
21
23
18
32
24
18
26
19
30
13
17
18
18
18
16
17
13
20
18
19
20
18
21
23
22
15
18
18
19
19
27
23
12
26
23
16
16
26
19
22
13
24
23
22
14
19
17
22
26
20
17
21
25
22
18
17
23
22
19
15
16
20
16
22
17
32
27
15
21
21
17
17
21
18
16
16
25
18
24
13
26
10
18
16
25
22
27
26
12
18
21
21
26
21
17
17
24
24
15
18
23
17
16
27
114
92
85
66
80
62
69
61
63
60
63
50
52
52
43
46
53
31
29
32
33
35
31
33
21
26
36
21
30
31
28
27
30
10
30
24
16
18
21
18
24
17
15
12
17
16
15
17
19
18
13
23
20
7
19
22
17
8
22
19
14
17
18
12
13
17
14
16
15
16
18
13
15
13
19
14
14
21
9
13
13
13
10
16
11
18
20
14
22
10
11
10
5
18
14
16
20
17
13
16
14
8
12
9
14
16
11
11
10
20
15
18
17
12
12
13
11
9
12
26
116
102
80
92
75
77
73
64
59
65
65
55
60
60
39
46
50
47
36
48
36
52
37
41
38
36
27
37
34
36
44
24
31
26
26
15
38
27
27
25
29
17
18
24
25
27
13
20
31
17
22
14
29
26
29
21
25
21
17
24
21
29
21
28
19
17
15
23
19
24
15
22
18
26
21
14
16
19
22
20
23
19
22
24
19
27
22
19
24
16
25
11
20
28
17
15
11
28
19
23
19
13
15
20
23
15
22
11
26
30
24
26
13
27
15
22
21
15
19
20
12
10
11
10
10
3
9
6
8
11
3
7
6
7
11
7
4
8
6
4
8
10
5
19
27
37
21
23
23
21
20
30
28
33
20
27
19
21
25
19
21
26
21
20
21
21
19
21
22
20
23
19
17
16
19
21
21
26
35
16
22
19
20
20
14
23
20
33
15
16
26
16
22
19
26
21
20
22
15
14
18
18
16
23
15
27
22
14
19
29
16
22
26
15
21
19
19
22
14
9
17
24
23
20
25
18
18
25
17
17
19
21
26
27
15
19
19
33
18
27
18
17
19
18
22
18
18
23
18
19
17
18
25
18
22
18
27
16
17
21
21
22
20
44
103
96
94
60
62
64
67
51
60
70
60
49
47
55
42
41
43
48
25
38
36
32
35
29
29
21
32
29
23
23
23
23
26
17
19
20
19
12
21
17
17
25
11
15
16
16
18
15
16
15
13
12
14
14
11
18
18
21
17
10
18
13
14
8
12
11
11
14
12
15
13
13
20
19
16
13
13
15
13
8
7
14
16
11
20
9
15
13
13
10
13
14
18
20
12
20
14
13
13
12
10
10
11
13
12
14
12
13
12
10
20
14
13
15
13
11
15
20
12
33
131
113
116
83
66
68
71
55
89
68
55
70
56
43
48
46
57
31
40
44
40
38
31
46
37
28
36
34
30
33
34
29
26
23
26
32
42
26
27
30
24
19
25
21
27
33
21
20
28
27
20
15
32
14
30
22
24
17
17
20
18
17
25
22
26
24
22
20
19
18
22
20
23
17
27
25
22
31
21
14
22
20
14
16
19
9
29
31
17
20
22
17
19
17
20
20
30
24
18
26
20
23
24
15
20
12
23
27
21
19
19
18
19
19
25
21
18
8
16
12
11
5
7
6
10
9
6
4
9
4
11
13
9
4
1
13
9
9
2
4
9
15
7
16
5
9
14
13
27
37
29
19
37
34
23
19
21
28
19
23
26
23
22
21
23
29
25
28
30
25
24
33
25
30
26
26
23
18
15
20
32
27
18
18
25
13
25
19
20
22
18
22
22
22
23
19
19
22
23
21
26
17
21
24
27
11
22
13
16
18
12
16
23
15
19
31
11
20
24
21
19
27
18
16
20
16
22
20
20
19
14
25
24
18
23
23
17
16
18
19
17
26
21
17
18
21
27
18
12
17
25
23
26
18
19
25
25
16
23
21
17
20
21
18
13
20
21
42
83
88
76
85
66
76
63
70
60
61
60
60
52
58
41
38
38
40
48
36
28
36
26
29
25
32
23
24
26
20
24
31
18
25
24
23
22
16
24
25
18
16
11
18
21
17
11
18
17
16
16
20
18
12
9
18
16
17
12
18
8
15
19
15
13
14
16
9
11
15
14
17
21
19
14
17
16
14
14
12
19
9
13
21
11
9
15
13
19
13
19
12
16
11
16
10
19
17
10
13
13
13
15
12
13
10
15
10
12
11
17
15
5
12
12
23
8
14
14
32
112
95
81
88
80
74
82
71
64
57
49
75
41
46
52
55
50
48
46
35
50
35
34
37
36
30
34
35
36
26
26
29
35
35
31
26
28
28
22
32
22
25
30
20
25
23
15
30
19
22
31
24
24
13
24
19
21
22
17
15
23
20
18
19
32
14
13
22
19
17
27
16
19
22
20
18
36
15
21
16
30
20
19
18
19
28
15
18
18
22
22
29
24
24
18
20
18
14
21
17
26
25
17
23
20
25
13
20
18
14
21
23
12
18
25
18
13
20
21
10
6
7
11
5
13
10
8
7
7
3
10
10
7
9
7
9
9
8
5
9
10
10
9
9
6
12
7
7
7
11
14
6
27
29
36
21
27
32
35
29
21
27
25
20
21
26
25
20
20
26
26
33
28
28
15
26
21
15
19
26
24
22
25
22
23
24
21
19
20
16
23
16
22
26
12
20
20
23
19
10
16
14
19
29
26
17
20
15
23
14
25
18
20
12
18
25
24
11
16
23
12
25
15
23
22
16
21
19
25
21
24
29
13
20
24
18
23
17
18
20
12
19
21
28
25
15
15
17
18
22
17
19
26
15
17
26
18
20
21
21
21
18
25
19
22
19
24
20
21
22
14
26
103
86
87
88
71
56
49
64
70
57
58
57
44
34
35
40
36
45
50
38
27
22
34
25
31
13
34
19
18
24
19
29
20
25
16
23
26
21
20
23
21
18
19
17
24
13
12
23
19
20
12
15
14
25
15
15
24
5
15
12
15
19
16
20
15
17
13
14
13
14
14
14
11
13
20
12
19
13
22
14
14
18
16
15
14
10
15
15
11
21
13
19
19
15
21
15
13
18
10
13
18
18
8
15
10
11
11
11
11
10
23
10
13
15
10
19
9
18
20
27
128
96
87
101
88
89
64
73
71
60
56
53
52
48
52
59
40
36
37
47
45
49
36
31
35
27
36
35
27
28
31
27
33
25
33
38
33
33
23
24
32
30
24
27
24
21
17
18
22
24
18
37
30
31
14
16
17
23
28
23
25
28
18
15
20
21
29
16
20
21
29
19
32
20
24
16
17
26
23
16
13
25
20
17
20
21
19
17
11
18
16
11
18
15
18
23
23
22
26
22
23
16
19
15
21
20
23
20
14
16
18
16
22
19
20
13
23
18
11
19
10
10
8
9
5
5
2
12
3
3
12
2
8
10
9
10
9
8
9
11
11
8
12
4
10
4
6
7
6
5
8
8
5
9
8
12
49
39
33
29
39
26
34
20
38
37
24
26
41
26
36
30
29
30
26
25
22
30
22
16
18
23
20
20
27
16
27
16
16
24
19
26
28
23
13
16
21
15
20
18
24
20
13
21
21
18
22
22
21
16
22
13
16
18
23
19
21
23
28
26
25
15
18
23
20
17
25
18
18
18
14
21
24
12
17
23
23
19
24
17
20
22
14
18
19
21
19
33
21
17
22
25
15
13
16
26
29
16
14
25
19
14
24
20
29
21
16
19
12
22
21
28
17
14
18
36
96
87
73
82
62
63
66
68
47
62
51
54
41
49
39
41
34
47
44
40
36
34
30
29
23
36
30
23
24
22
30
27
19
18
27
24
17
23
22
23
20
20
17
20
20
14
18
15
8
10
13
7
17
18
12
11
19
13
17
10
22
21
20
16
17
13
12
15
6
15
16
7
12
11
18
19
10
9
12
11
21
15
14
12
23
15
14
9
19
22
10
18
12
7
13
15
12
14
11
15
11
20
14
14
12
11
9
7
10
13
9
14
11
13
7
8
15
12
19
38
137
88
92
92
82
69
66
72
72
69
60
43
58
53
51
54
46
32
32
31
43
45
37
48
29
37
30
41
33
31
29
24
32
21
34
27
27
26
29
25
29
27
25
31
15
18
22
28
26
27
23
30
24
28
15
19
19
24
16
18
17
16
30
28
22
20
12
21
15
23
29
25
25
28
18
19
16
20
12
22
16
20
33
23
19
18
17
22
14
21
26
23
17
19
24
15
29
21
22
24
23
23
11
23
21
32
20
15
19
23
22
19
15
22
24
18
24
28
21
13
18
6
9
10
3
5
7
10
11
3
10
9
10
5
5
9
7
7
6
8
3
4
9
7
11
5
8
11
11
7
4
5
8
7
9
13
16
7
7
20
37
45
32
37
41
29
34
31
22
29
35
30
24
28
25
25
21
31
21
25
31
13
20
20
34
31
27
20
23
27
25
17
32
22
26
21
22
16
20
16
20
29
14
15
15
23
21
20
22
19
23
25
28
20
25
24
19
26
19
20
11
16
13
25
15
20
18
29
19
23
20
21
25
21
21
19
28
21
16
17
16
13
20
24
33
15
22
30
17
17
17
23
26
18
22
20
25
20
25
20
17
18
21
26
17
15
13
20
18
31
14
23
19
23
14
18
16
22
16
31
112
69
85
83
74
90
57
59
72
60
48
45
48
53
40
44
35
43
30
35
28
32
40
28
26
30
26
21
21
26
23
18
29
15
17
19
27
21
10
20
9
20
18
24
20
15
11
16
15
13
8
20
20
21
14
10
16
22
8
13
16
15
20
10
16
14
15
16
14
16
15
22
14
15
13
14
13
15
18
16
14
13
7
17
10
21
11
14
17
3
18
18
15
11
7
15
14
8
16
12
13
10
13
13
12
11
18
12
9
17
21
12
16
9
9
11
15
13
13
36
97
92
105
89
91
98
62
75
68
71
62
53
50
55
49
37
40
34
46
36
45
37
59
37
23
40
41
36
28
36
37
30
29
42
28
33
27
20
29
28
22
20
27
31
22
26
28
24
28
14
30
21
28
23
18
19
13
23
27
16
18
21
18
19
19
19
24
26
25
24
23
31
19
22
27
37
18
21
17
17
16
19
15
29
21
21
16
17
21
18
21
16
17
23
21
19
22
29
26
20
17
16
20
26
24
13
12
9
15
16
21
22
24
24
14
20
24
20
15
16
11
6
4
9
9
8
7
7
0
11
7
6
7
4
11
9
5
7
9
7
9
11
6
9
3
8
9
4
12
9
11
5
7
7
4
8
6
4
7
2
7
13
8
8
40
40
29
30
24
38
27
35
25
36
40
20
26
27
22
23
36
14
24
19
26
26
25
31
24
23
30
33
23
20
27
20
25
27
19
26
21
32
19
23
17
12
19
15
16
20
21
27
22
19
17
22
22
14
26
19
19
13
14
17
19
19
22
19
21
16
14
16
22
26
17
18
20
15
13
19
18
21
21
14
22
23
20
11
16
17
23
21
21
24
23
19
8
22
18
17
23
22
19
20
23
18
19
28
20
19
18
19
17
28
19
17
21
20
25
29
23
22
18
33
94
96
100
69
74
54
61
51
42
58
54
56
53
56
47
31
40
35
35
28
28
25
37
35
28
44
36
14
25
21
20
23
27
20
18
17
22
19
20
18
21
13
21
23
16
11
19
19
14
14
13
16
18
20
14
17
19
17
11
19
14
15
8
16
10
15
10
10
11
9
19
16
12
23
17
20
16
19
14
12
14
13
13
15
13
12
14
15
15
16
13
14
11
11
9
12
11
12
14
14
12
16
12
12
8
19
16
11
12
17
9
9
14
8
10
15
14
14
12
32
131
106
107
79
76
81
87
73
60
65
64
52
60
61
38
51
45
40
45
32
33
41
35
37
34
42
25
35
35
33
36
18
22
36
32
34
19
28
25
24
18
26
29
18
30
26
18
26
12
18
22
29
27
15
19
33
23
23
17
22
23
20
26
19
31
23
23
22
25
18
19
23
21
17
22
23
21
19
16
29
16
17
18
28
17
17
33
22
21
26
17
23
19
15
18
15
20
23
14
24
17
17
23
18
24
22
21
14
21
14
21
13
19
23
22
17
16
28
18
15
9
8
3
10
9
12
7
11
8
12
9
5
8
4
5
10
9
7
10
11
14
13
7
9
6
6
6
8
6
8
6
6
7
6
6
4
9
9
10
10
7
15
3
12
10
8
3
14
46
34
32
38
35
43
32
26
23
25
31
22
23
33
16
30
27
28
32
27
29
29
27
34
27
18
29
20
18
19
23
29
23
18
20
28
20
24
25
22
18
23
26
20
20
20
21
21
18
20
15
27
27
18
17
22
27
19
19
28
21
31
25
21
19
23
14
21
17
22
22
19
20
22
17
27
31
11
14
24
32
23
23
12
28
33
19
23
13
18
18
25
26
19
28
20
19
15
20
17
22
22
24
13
18
24
15
27
20
32
14
22
29
20
19
16
13
25
15
41
93
86
69
77
80
67
55
59
64
58
50
53
45
48
49
43
49
44
29
33
36
27
40
26
32
25
23
29
33
27
32
21
25
13
18
13
26
17
15
23
19
22
20
16
16
18
20
19
17
17
15
15
12
15
19
23
20
19
13
15
11
11
16
22
21
13
12
14
16
16
12
10
21
9
11
13
14
11
10
10
14
10
11
8
14
16
14
10
15
9
16
14
11
11
13
15
12
12
11
10
12
11
16
15
9
12
14
13
12
18
10
17
19
16
12
11
12
14
11
35
101
84
84
79
66
72
54
58
75
59
50
77
57
56
40
54
49
54
48
41
40
43
40
27
35
32
40
41
24
31
34
32
34
31
32
35
27
33
29
27
26
30
20
20
23
15
28
26
24
22
18
20
19
14
19
14
16
25
26
14
18
34
17
17
18
19
14
21
20
17
22
25
22
28
18
22
20
11
21
17
18
25
21
22
24
18
28
26
24
19
23
14
15
23
21
27
25
20
19
14
22
19
18
26
24
13
26
16
13
15
35
28
18
24
32
21
13
19
15
13
10
8
7
14
9
8
7
4
8
5
9
10
8
7
11
9
1
3
9
4
6
6
6
11
12
3
12
9
4
7
12
10
7
7
10
7
6
5
7
14
10
7
6
7
5
12
7
10
7
7
10
20
47
44
31
33
37
33
33
28
28
41
40
25
41
27
38
27
27
25
24
20
17
23
31
22
17
21
16
23
25
24
24
22
15
24
22
20
19
23
22
18
16
23
17
24
17
24
20
25
24
18
19
17
16
20
26
17
26
17
24
19
24
19
16
19
22
17
12
21
20
20
22
22
18
24
17
25
20
19
21
21
24
22
23
22
21
19
17
20
21
19
20
27
24
15
17
25
21
21
18
16
24
14
17
26
17
16
20
18
26
18
22
14
22
23
31
16
23
28
19
40
96
80
89
58
72
76
75
78
57
44
45
42
46
46
37
51
38
48
32
42
46
49
43
33
30
33
36
29
19
28
18
24
12
30
29
28
19
21
20
19
16
20
17
17
24
23
14
25
12
20
18
10
10
14
14
23
18
15
14
14
21
15
10
16
9
15
12
20
17
25
19
9
8
11
16
13
13
11
9
19
14
11
12
11
11
12
13
14
19
9
18
20
11
14
18
12
16
12
14
15
16
15
15
14
9
22
11
12
10
17
10
12
9
17
16
11
13
12
12
35
118
118
87
92
69
77
63
60
61
60
52
52
64
53
71
50
48
37
55
52
38
33
28
41
40
37
26
31
23
28
26
30
35
20
32
13
27
23
32
27
22
26
16
28
26
22
25
33
23
23
31
20
24
17
24
24
27
20
22
22
17
17
22
19
17
23
17
24
24
25
19
23
20
14
24
21
22
20
31
25
22
19
17
20
14
17
18
18
15
22
17
25
17
16
23
18
19
24
27
26
24
32
23
18
17
12
18
14
28
26
17
13
16
19
22
22
28
27
19
19
8
12
5
7
4
9
6
10
6
8
11
10
11
7
9
5
13
5
8
10
9
4
10
8
4
7
7
8
10
10
2
7
6
12
8
11
6
6
10
10
7
4
14
4
8
8
8
2
7
9
9
8
6
10
10
9
41
45
40
43
46
25
36
31
24
29
27
34
24
23
21
17
32
25
36
25
29
39
27
23
18
21
26
18
19
23
37
18
24
19
21
8
26
19
21
27
13
16
24
21
26
25
19
16
13
17
19
20
19
12
20
25
17
19
24
19
21
18
18
16
16
22
15
20
23
19
23
16
19
23
25
22
20
18
20
22
22
16
16
13
29
17
27
19
20
18
21
19
16
34
15
17
17
17
19
15
15
14
18
23
16
19
21
17
19
27
18
28
21
25
15
14
15
28
17
42
99
96
89
81
86
74
59
55
57
49
53
44
52
42
51
33
34
40
44
43
40
37
41
26
30
31
23
29
20
29
22
17
17
38
21
21
16
17
12
16
15
26
16
12
20
13
15
19
20
21
24
9
9
16
15
10
22
14
19
22
12
14
19
14
13
13
12
10
17
11
15
13
16
15
13
12
13
13
9
19
14
18
12
8
11
13
14
11
15
14
15
13
16
8
11
16
13
10
11
9
10
13
15
17
7
9
15
13
17
9
9
11
9
20
10
14
17
17
19
17
108
98
92
105
74
86
82
86
65
61
67
63
64
62
58
52
46
48
46
38
40
38
39
36
38
33
45
27
38
39
36
17
21
21
25
22
26
18
24
29
33
31
18
25
20
20
24
27
25
26
23
25
23
24
22
21
14
18
19
24
21
11
15
24
30
19
14
23
14
29
33
19
30
15
24
20
19
22
16
16
13
26
18
21
19
24
16
19
19
22
19
20
18
20
22
18
26
14
21
21
17
12
20
24
18
21
21
22
12
16
17
17
17
18
23
23
24
21
22
24
7
8
10
5
4
5
6
8
7
9
6
8
7
13
5
7
6
9
15
6
4
8
10
8
14
6
5
3
5
10
5
6
8
6
12
7
12
6
10
7
9
10
5
11
11
14
4
9
10
9
6
6
8
5
4
3
4
7
7
18
50
40
43
50
25
40
35
43
34
33
32
25
26
19
38
29
21
30
17
31
28
20
25
21
20
21
31
18
19
24
25
29
24
28
17
16
30
17
18
17
22
17
24
26
27
19
19
13
18
18
19
22
18
19
19
18
27
11
15
16
19
14
12
22
18
18
30
18
19
22
20
16
19
18
11
24
25
16
23
13
34
16
19
14
21
13
18
21
25
23
20
21
23
22
13
23
20
20
17
19
16
19
19
16
22
17
20
25
17
19
15
19
14
19
20
16
24
26
19
35
117
66
97
88
84
72
69
49
53
61
58
48
30
39
48
44
32
35
37
41
45
27
27
34
30
22
34
29
23
33
23
27
29
31
25
17
25
25
22
19
22
16
17
20
17
25
17
23
19
16
18
14
19
14
13
24
11
16
16
19
17
12
12
16
23
13
13
15
11
17
21
10
11
18
9
15
20
19
11
13
10
16
17
11
13
12
23
8
16
8
19
17
10
15
15
16
8
16
17
8
19
17
15
10
13
11
10
6
12
15
6
10
18
14
16
15
14
15
12
32
121
99
98
96
86
68
65
68
75
67
64
45
60
47
43
60
46
48
40
39
40
45
38
51
37
31
41
26
34
34
22
28
30
23
28
27
30
25
23
26
21
24
14
25
22
23
19
26
15
23
20
29
22
20
26
14
24
23
34
25
16
13
25
22
22
20
17
20
19
22
18
20
29
15
28
23
22
17
21
15
16
19
14
30
22
24
25
20
22
28
22
19
16
24
17
17
14
26
19
14
22
15
21
17
16
15
16
26
25
19
18
17
20
22
18
27
18
22
13
14
4
6
8
6
5
9
12
7
10
4
7
6
5
4
3
11
9
12
4
12
11
9
8
10
12
8
10
4
12
13
8
10
6
3
6
15
6
7
7
4
4
9
10
9
11
5
2
11
3
5
5
9
6
9
8
9
5
9
1
9
13
11
6
15
56
39
29
35
36
24
35
34
30
35
30
37
34
28
25
35
35
30
28
28
32
27
22
21
17
30
30
18
26
19
22
32
28
26
21
26
18
21
18
22
22
18
24
14
21
24
15
23
21
23
15
26
20
15
18
25
21
20
22
17
25
26
19
25
20
21
27
20
20
19
21
22
20
19
25
10
19
20
10
27
14
24
23
22
23
19
16
19
21
16
21
17
29
19
25
19
17
17
18
22
22
13
17
26
22
15
10
21
24
9
16
24
26
20
19
17
17
16
22
41
86
96
86
65
79
69
69
67
59
61
46
42
53
48
43
42
37
46
35
47
37
33
30
28
26
21
31
28
29
26
24
30
25
21
27
22
24
19
20
17
18
19
12
18
27
17
19
17
20
20
12
14
22
10
17
13
11
21
13
8
15
19
11
12
10
20
16
17
15
21
15
13
14
10
13
15
11
12
17
11
11
10
19
12
11
12
16
13
10
10
15
8
6
17
18
9
14
13
19
18
11
8
11
8
7
11
14
14
12
11
14
12
11
17
16
15
12
16
8
34
122
78
93
85
95
66
54
67
70
62
67
52
56
49
43
55
63
50
42
45
36
31
37
47
40
28
35
30
26
30
31
33
20
26
27
30
19
34
29
28
30
19
23
17
31
22
23
22
25
21
19
26
20
19
26
21
21
23
17
23
27
20
19
17
18
25
21
29
12
22
24
28
29
14
19
20
14
30
16
20
20
21
30
20
21
22
18
21
13
14
16
20
19
15
16
27
16
16
14
20
18
14
17
19
15
17
31
22
17
17
19
15
13
15
13
14
21
20
22
10
6
9
10
3
11
15
6
7
7
7
8
6
6
5
5
10
6
5
8
11
6
9
7
2
2
9
14
4
10
8
6
9
4
6
8
8
9
4
9
9
3
12
4
8
10
8
11
6
9
6
11
5
5
7
8
9
11
8
6
7
12
7
5
7
6
4
7
19
54
39
44
27
32
32
37
33
28
30
31
23
30
27
33
27
26
28
24
29
23
25
22
27
37
22
23
21
28
17
25
17
27
28
14
22
13
28
21
27
22
18
18
22
18
15
26
19
22
21
14
20
16
19
15
21
23
21
17
20
18
21
24
13
17
15
20
18
14
17
18
22
22
21
12
22
22
23
11
22
22
29
26
23
16
23
22
20
22
20
19
22
18
27
19
14
18
17
15
22
23
19
20
24
20
24
23
22
23
23
16
19
20
24
16
20
21
20
19
31
110
64
91
82
64
74
60
49
60
52
54
37
54
59
37
28
36
51
37
34
37
33
24
32
26
22
33
24
26
25
28
24
28
22
17
26
27
17
19
16
23
13
20
11
13
19
24
18
19
16
18
17
21
25
18
8
5
16
9
14
18
17
13
17
8
10
9
18
8
13
19
14
13
14
17
10
8
13
19
13
18
15
19
12
17
15
11
15
13
13
9
17
15
12
12
15
12
14
8
9
13
9
14
18
16
13
16
13
14
19
13
17
14
15
11
19
11
9
16
35
115
92
80
65
78
84
80
62
55
52
61
51
38
50
48
40
67
60
41
48
36
34
48
31
30
46
32
31
28
24
26
31
35
28
30
21
26
32
37
36
26
27
21
24
20
29
20
31
18
21
25
20
18
27
18
19
25
13
25
26
23
24
26
25
26
24
22
19
23
22
27
27
28
13
18
15
24
31
24
20
20
24
24
11
15
21
19
17
17
18
23
17
16
19
12
16
20
14
16
20
16
20
16
20
24
20
22
20
15
24
18
22
18
23
17
17
28
19
22
21
10
11
9
14
8
8
7
8
8
6
8
6
11
11
8
11
8
6
10
8
11
8
11
8
10
9
6
6
2
8
9
11
14
6
12
6
8
8
10
12
5
7
7
4
14
12
10
8
6
12
10
9
7
12
9
9
7
12
10
8
5
4
9
8
8
13
6
6
6
1
7
6
48
54
41
40
32
44
49
39
38
39
34
30
30
28
33
34
33
32
34
23
23
25
22
32
18
18
26
32
22
10
19
23
25
16
20
16
21
22
21
20
21
22
21
14
20
27
17
18
25
20
18
21
22
24
24
27
20
23
21
22
25
18
19
16
17
21
33
12
24
16
18
26
26
14
18
14
21
27
28
17
21
16
25
24
24
17
15
23
12
13
21
22
25
17
16
28
21
24
23
15
15
22
21
21
33
22
12
24
17
22
17
24
18
15
17
18
21
19
17
33
112
92
79
83
64
62
76
73
61
60
46
59
52
34
53
40
42
37
39
26
38
34
33
22
30
23
24
25
28
27
20
19
20
25
23
21
19
14
17
17
18
14
14
17
16
17
17
21
14
17
12
23
14
17
13
13
22
12
16
18
17
22
14
20
12
17
18
17
13
13
14
23
17
12
12
17
18
12
20
10
14
14
12
18
6
13
15
14
21
13
18
18
15
9
23
14
11
14
17
7
19
13
15
24
11
13
9
20
15
13
13
9
13
19
12
14
20
10
9
27
100
73
80
78
75
68
77
68
64
63
50
46
43
53
44
56
44
44
40
43
48
37
37
50
32
33
39
29
31
28
35
34
19
31
26
29
20
21
14
23
32
24
26
30
27
18
36
19
26
23
25
22
14
21
21
20
22
24
22
14
26
18
22
19
14
16
22
16
20
25
32
20
19
24
21
29
20
19
23
22
12
23
22
27
18
19
20
22
25
26
24
23
20
18
14
26
25
23
19
18
18
21
19
26
15
21
17
19
29
17
18
15
22
37
20
18
30
20
27
26
14
6
5
7
6
8
4
14
13
12
13
12
7
7
10
14
11
7
5
8
5
6
3
5
13
10
5
9
6
7
8
7
10
6
12
11
11
11
8
15
7
9
13
11
7
10
10
6
8
14
9
9
7
7
3
9
9
8
8
10
9
2
3
7
19
12
10
10
8
11
6
3
14
10
11
16
40
42
38
48
41
41
30
29
29
40
34
35
36
33
26
27
25
36
35
19
32
25
21
31
29
22
17
22
28
25
19
20
15
17
22
21
25
19
23
24
21
22
23
25
20
22
16
22
17
23
22
32
25
21
15
21
22
20
26
28
23
29
21
16
20
25
22
19
19
21
21
18
20
31
30
19
18
25
17
14
21
17
25
19
17
16
20
21
26
27
19
32
22
20
27
24
15
19
18
29
15
14
16
30
26
16
18
20
21
24
17
24
26
23
11
25
14
19
23
32
116
87
72
80
75
74
60
62
55
50
52
47
52
45
40
39
34
40
32
30
45
37
42
31
31
33
27
21
27
28
26
29
22
22
24
19
16
23
18
28
19
11
9
18
19
24
18
17
20
11
15
10
16
13
14
19
18
17
13
20
15
12
13
14
11
15
9
11
10
6
10
9
20
11
12
21
16
15
15
16
15
11
12
10
10
13
12
12
14
12
13
17
12
14
19
11
13
12
15
12
17
16
15
17
18
13
10
12
12
15
16
18
10
10
8
13
11
12
13
31
120
101
77
78
89
69
66
68
62
66
62
71
57
62
56
54
49
41
38
40
28
42
46
32
36
40
28
48
32
41
33
36
33
27
25
18
28
45
20
26
32
23
19
31
27
19
22
23
29
23
20
24
32
23
24
17
16
19
23
20
15
32
22
31
25
24
24
17
14
20
24
24
22
18
20
17
19
20
19
26
18
34
27
15
25
23
10
22
13
19
23
21
22
23
16
16
28
17
16
13
24
19
24
19
18
20
23
22
10
15
13
19
19
17
17
18
27
20
19
21
9
8
9
11
10
6
13
7
6
11
12
9
3
12
13
7
8
7
10
3
10
9
8
8
9
9
4
14
10
8
15
8
5
6
3
9
5
6
6
14
7
12
9
12
10
10
9
15
9
10
13
4
4
7
4
8
6
14
10
4
6
4
8
9
10
10
9
8
7
7
11
9
10
7
5
9
10
10
7
19
43
50
44
55
43
37
37
48
27
34
45
18
50
30
32
28
36
42
30
25
29
24
26
31
23
31
28
28
26
21
14
25
31
21
27
31
23
24
18
27
19
26
16
21
27
25
21
25
16
20
24
23
23
15
19
18
15
26
19
25
20
26
21
22
31
20
21
22
21
18
18
17
19
23
22
22
21
22
23
19
19
18
21
23
10
11
11
22
28
18
25
18
21
18
18
24
13
23
21
21
13
22
16
16
22
16
20
20
22
16
24
16
21
19
19
21
9
23
23
36
130
70
55
78
74
84
51
58
76
49
44
57
45
52
40
47
34
31
43
44
31
41
33
35
33
30
25
33
20
33
20
20
20
27
24
24
17
15
25
19
17
20
16
16
20
20
17
24
13
15
16
17
19
18
19
15
18
12
23
10
17
12
13
16
13
9
15
19
14
15
13
16
10
23
14
14
14
18
18
10
21
20
15
9
14
12
15
18
11
8
11
19
10
22
7
15
18
10
13
13
14
13
10
13
19
18
15
13
12
11
10
16
18
10
18
17
7
10
16
32
104
92
84
81
82
96
62
78
72
67
65
59
51
55
56
46
42
41
42
44
40
49
40
45
41
36
39
41
32
31
26
22
32
32
26
25
27
25
26
33
27
32
25
26
24
23
28
15
18
19
18
22
14
16
15
19
20
18
26
23
15
23
14
20
22
21
19
13
29
22
16
23
25
15
31
29
22
21
18
15
20
17
17
15
26
14
18
23
21
22
17
29
18
14
18
15
22
22
27
22
25
20
21
17
20
21
23
20
19
13
20
22
21
22
14
21
22
21
20
23
5
10
4
4
7
9
4
11
8
5
7
6
5
5
7
3
9
8
5
10
4
3
8
7
8
8
11
10
9
8
8
5
11
15
8
5
7
7
5
7
13
11
6
7
6
6
7
6
7
8
11
8
11
4
13
6
11
5
8
10
12
15
4
7
7
7
8
8
9
13
5
7
12
3
8
4
9
10
14
5
10
7
11
10
54
55
57
39
46
38
49
37
42
34
39
28
39
26
32
36
26
23
26
25
25
31
29
25
39
25
35
26
23
26
18
29
20
28
21
21
22
21
19
26
24
17
15
23
28
21
27
13
21
25
26
24
19
29
18
11
24
17
21
24
11
12
20
22
15
20
24
23
23
15
19
16
24
21
25
25
26
21
19
25
13
18
17
23
21
18
29
25
25
14
28
24
18
26
23
22
20
23
24
15
34
22
26
19
27
20
16
29
12
21
17
17
16
15
22
28
16
20
31
55
112
91
74
88
79
89
59
66
52
49
66
49
48
44
47
45
47
47
37
32
32
28
24
18
31
27
29
33
28
25
22
15
25
22
23
15
25
17
23
21
21
19
21
9
18
15
16
20
24
18
11
13
16
16
6
14
17
10
23
15
11
12
15
16
14
16
9
10
18
14
18
18
11
10
16
18
20
11
16
16
14
17
17
11
10
10
7
15
12
15
10
24
11
11
11
14
5
17
18
9
16
10
14
11
15
15
17
14
8
12
17
9
16
14
12
13
14
8
12
33
138
72
99
87
90
78
78
67
67
63
59
42
54
50
54
48
51
52
36
39
39
42
23
38
31
43
40
28
32
36
36
33
24
37
22
30
23
30
33
32
21
26
30
24
24
25
29
18
17
24
19
31
20
29
20
24
18
19
17
14
15
31
16
30
21
24
28
16
23
21
19
16
23
32
21
24
24
27
18
13
17
23
20
14
22
24
16
14
28
20
15
24
23
9
19
16
19
21
31
21
22
21
21
26
20
16
12
25
13
12
15
18
14
18
17
20
17
18
24
21
17
5
14
14
13
7
10
5
11
6
9
11
17
6
6
4
12
7
11
12
6
15
6
8
9
9
7
11
10
8
6
10
9
10
6
11
12
4
8
13
6
11
5
13
11
5
6
8
8
7
15
8
15
5
7
7
6
11
12
9
5
10
6
11
7
6
8
10
10
5
11
7
9
10
10
3
9
9
8
8
1
9
8
6
5
11
6
15
35
48
43
33
40
33
45
32
36
28
25
31
34
30
31
25
29
35
19
34
25
32
28
25
34
23
19
29
30
22
25
26
19
15
27
19
27
21
22
24
24
21
17
28
21
24
22
15
14
18
17
26
20
17
17
22
10
18
20
19
19
13
17
21
21
17
22
24
26
22
19
21
19
23
16
19
21
21
16
21
18
17
14
24
29
16
22
14
13
24
16
19
25
15
13
19
16
17
20
15
20
17
22
20
15
12
15
18
17
21
25
28
16
31
14
18
13
18
21
40
109
82
74
89
81
51
89
63
67
59
51
56
52
49
46
36
51
35
33
30
38
20
36
23
42
26
29
22
26
23
26
21
31
23
18
28
18
29
18
17
19
17
23
19
15
15
24
12
18
15
21
21
16
14
20
10
9
20
13
11
23
15
17
21
22
8
15
14
12
12
13
14
12
15
14
10
14
17
12
9
15
19
24
16
14
15
16
15
15
16
11
17
14
20
13
16
20
12
9
14
10
17
10
13
14
14
21
18
10
13
18
18
18
12
10
15
8
17
15
32
84
97
100
83
63
82
76
70
53
66
54
57
44
61
41
40
44
50
44
39
44
32
35
33
36
24
32
40
35
25
29
32
22
34
23
33
33
26
25
21
25
22
20
23
27
14
24
21
25
26
20
23
19
22
18
15
26
22
16
19
24
18
20
28
16
27
18
25
19
22
21
14
17
22
26
16
15
18
21
22
23
15
20
22
18
18
16
24
21
16
17
17
21
26
19
20
23
20
18
18
22
19
23
22
14
14
18
28
16
22
17
14
17
22
22
21
14
26
24
12
7
8
8
5
5
12
11
6
8
12
2
9
10
4
2
11
8
10
7
3
6
4
12
4
15
5
7
10
7
7
6
7
5
10
5
7
3
8
5
6
11
11
5
6
7
6
4
10
11
11
6
7
8
14
5
3
11
4
13
6
4
7
9
6
6
6
5
6
12
6
8
8
4
8
6
7
12
10
9
11
12
7
8
7
12
6
6
8
10
6
8
11
63
53
43
45
50
43
29
32
41
34
34
34
22
29
33
23
31
30
28
29
33
25
29
31
32
24
26
34
33
28
27
21
22
16
22
32
28
26
27
22
22
22
20
20
23
28
16
18
16
20
15
21
16
19
24
21
14
19
19
17
16
23
17
24
26
16
18
28
14
16
20
26
20
19
23
19
12
19
21
22
23
16
22
15
23
19
26
15
20
19
17
18
17
11
22
26
23
22
14
16
23
21
18
21
21
26
21
30
22
21
22
20
17
15
26
24
23
14
18
33
116
81
76
76
61
82
65
56
48
51
61
53
49
41
37
28
43
50
36
38
32
22
23
34
26
28
26
27
21
30
24
23
19
17
32
25
21
25
22
20
20
20
14
29
15
13
18
12
14
22
23
8
24
19
10
9
11
11
9
16
9
13
20
10
12
18
19
16
21
14
11
10
15
10
12
14
25
16
13
14
16
10
11
16
15
17
9
12
20
10
15
16
9
16
9
17
25
10
14
16
8
9
5
7
18
13
10
7
15
15
20
14
11
11
12
13
12
17
20
25
108
82
90
85
91
84
65
76
85
54
41
79
60
45
51
59
44
41
45
39
48
43
35
52
48
27
30
34
37
29
25
40
27
29
31
39
22
23
26
26
30
32
26
26
18
25
19
24
20
22
24
26
20
23
17
19
18
17
21
17
24
25
23
22
20
24
19
13
18
12
19
18
27
19
18
19
13
16
18
22
16
23
24
21
18
21
24
17
24
22
24
16
20
23
18
24
11
21
25
16
18
15
20
18
13
22
18
23
19
15
14
18
19
18
29
23
25
19
28
14
10
9
2
11
7
8
4
6
7
7
10
13
8
9
13
9
4
8
8
7
7
9
6
7
9
9
5
6
3
12
12
9
9
5
9
18
7
12
5
5
8
10
9
8
10
6
4
5
8
7
6
14
6
13
9
9
6
6
12
5
9
10
8
10
8
5
14
10
11
13
11
6
9
11
11
7
5
11
6
6
5
4
6
5
12
4
8
4
6
10
7
6
10
12
5
12
54
48
36
35
30
32
33
34
30
37
47
29
27
33
27
22
18
29
30
28
35
38
22
25
24
24
17
23
26
30
23
25
19
23
27
34
24
25
22
24
19
26
20
26
24
15
27
19
25
16
22
21
22
22
14
13
24
25
23
19
28
23
24
23
23
23
21
32
17
18
20
15
16
23
23
26
22
17
19
19
20
23
19
18
18
25
21
12
21
21
23
22
17
18
18
23
19
14
21
28
18
23
20
17
19
21
15
15
23
20
19
9
13
17
20
30
26
17
20
30
113
87
91
66
59
74
59
81
69
60
50
56
42
49
50
51
33
52
48
40
30
27
24
37
43
33
37
25
23
29
28
35
17
13
23
27
28
14
18
16
15
18
18
19
15
12
19
11
20
14
17
18
18
19
16
20
22
18
7
17
18
11
12
11
15
13
11
8
18
14
16
9
15
12
15
14
9
11
15
12
16
14
10
8
10
13
11
15
19
19
11
15
15
14
19
8
13
12
12
13
15
15
12
13
15
9
14
22
15
11
16
13
11
12
8
16
16
13
14
21
116
97
90
84
77
90
59
84
76
59
67
77
61
51
59
50
53
48
46
26
44
39
39
36
31
36
38
35
25
41
42
31
36
31
15
31
25
31
28
24
33
28
29
22
22
21
21
19
26
27
20
24
21
26
19
20
20
30
28
23
27
23
26
18
19
26
26
18
21
23
19
18
19
24
15
23
22
27
21
24
12
10
16
17
30
20
21
20
14
28
28
16
31
13
23
19
15
25
17
16
20
21
18
23
13
13
18
24
23
29
20
17
18
21
20
20
26
15
20
12
5
12
15
6
9
9
8
6
5
8
7
8
7
13
9
11
9
7
7
5
10
5
9
8
4
14
9
10
6
12
9
7
8
7
7
8
3
7
9
11
14
8
5
7
9
6
8
9
7
6
8
3
4
8
10
13
9
8
2
5
6
11
9
12
7
8
13
7
7
6
7
4
9
9
12
9
6
15
9
7
6
3
12
8
11
9
6
3
10
4
4
6
9
8
12
7
6
14
7
21
44
46
44
33
38
42
41
30
39
30
33
31
30
44
37
19
34
29
28
23
17
31
25
26
37
26
26
29
23
26
18
26
24
20
23
18
27
20
26
17
15
15
30
28
13
23
17
21
24
21
14
18
18
14
16
25
24
17
19
17
21
24
16
19
17
13
17
22
19
19
18
22
16
24
17
15
17
24
16
26
20
12
17
16
18
23
17
26
16
24
18
19
13
22
27
23
18
30
17
13
23
15
27
25
20
19
19
16
25
23
23
20
20
24
17
19
22
17
13
43
108
75
84
74
76
70
46
71
63
65
47
55
48
49
41
51
36
46
47
44
29
35
30
32
25
27
31
24
29
24
21
31
18
26
23
23
25
22
28
18
24
20
14
15
21
16
22
13
16
19
10
31
18
14
19
15
11
14
13
15
16
10
10
13
17
15
9
13
13
13
12
18
17
16
16
18
20
15
10
14
9
8
17
10
15
13
11
12
17
8
15
14
5
13
9
13
26
13
18
10
13
14
10
10
15
9
9
16
11
13
15
14
12
12
13
8
10
14
16
30
122
85
82
76
68
79
98
63
73
69
58
46
54
52
45
50
60
44
44
42
39
38
41
38
49
33
41
42
46
21
20
30
34
28
24
29
24
37
29
27
14
23
30
21
15
24
25
27
15
16
28
28
14
29
20
31
14
26
29
24
21
16
17
23
25
31
22
13
24
23
22
23
26
22
19
14
28
16
22
24
16
17
21
17
19
22
11
18
21
23
22
11
23
18
18
22
25
17
18
30
22
21
22
18
17
25
17
21
10
16
23
17
19
25
23
19
20
20
23
22
7
8
7
5
7
4
6
8
2
11
11
9
5
9
9
7
10
6
8
6
10
5
9
7
5
12
8
7
17
6
6
7
6
3
11
6
7
15
8
3
8
6
7
5
9
8
19
11
5
7
11
10
9
8
8
5
4
10
12
8
8
9
3
9
8
6
7
4
7
7
3
11
7
16
7
7
11
14
5
11
7
6
6
8
13
7
11
6
12
11
3
9
5
7
6
7
6
10
8
10
8
8
9
14
62
48
40
39
44
39
31
39
36
48
33
38
31
23
29
33
27
32
35
17
29
20
21
28
28
31
27
22
22
20
24
25
26
19
20
21
16
30
24
23
32
26
25
19
21
18
18
22
21
27
19
27
19
18
20
19
17
12
26
21
28
13
17
23
18
21
19
19
15
21
24
24
25
19
18
18
21
23
25
22
12
16
14
21
23
14
20
15
20
23
17
20
17
12
25
32
20
25
15
23
18
16
19
21
15
15
14
32
17
26
18
23
26
21
30
27
25
25
23
40
103
103
87
72
91
73
69
69
57
52
57
55
44
46
39
34
34
50
47
45
23
38
40
32
33
32
19
32
22
22
26
23
17
20
12
21
21
18
20
31
13
17
12
14
12
18
15
13
22
12
16
16
19
19
12
21
19
19
11
13
19
15
10
15
16
20
18
22
18
16
11
16
19
13
16
14
12
18
11
12
16
17
16
11
20
15
6
8
16
13
15
9
11
17
10
12
17
18
10
13
14
8
13
11
9
11
11
16
13
14
9
19
9
25
12
20
18
11
15
29
117
109
80
87
91
91
80
77
55
87
52
47
47
50
63
43
55
48
46
35
36
35
47
34
36
33
31
34
36
32
31
28
33
23
41
30
27
32
32
21
34
17
31
21
21
32
14
27
21
14
20
18
13
17
19
22
27
20
24
16
22
26
24
32
13
21
19
16
17
25
19
23
25
23
17
20
21
14
24
28
20
25
14
21
26
20
16
23
18
26
27
26
19
28
21
18
16
16
19
15
18
28
18
21
19
17
24
25
23
17
20
15
23
24
17
16
15
22
18
14
15
6
7
6
6
8
9
8
3
9
9
6
5
10
14
6
10
5
7
9
6
7
8
7
9
4
8
10
10
10
9
13
6
4
9
9
9
7
7
7
10
8
8
12
6
10
8
9
11
8
6
11
12
7
7
4
9
12
10
9
8
9
11
3
8
9
11
3
9
5
8
2
11
8
11
9
11
9
10
11
10
4
12
3
6
6
7
10
9
13
10
8
12
5
7
5
14
8
12
8
5
6
8
15
7
15
7
20
59
41
51
47
37
34
32
33
32
46
40
33
24
23
32
30
29
36
38
19
29
35
27
31
25
27
29
28
28
30
22
16
27
34
21
23
18
23
27
21
17
14
18
17
27
21
21
22
12
18
24
21
23
16
24
16
24
16
25
21
14
25
14
26
22
24
24
24
22
16
30
24
25
19
29
20
19
23
25
29
21
17
22
17
23
27
20
17
20
14
21
18
19
15
20
26
15
27
20
28
27
25
20
23
16
12
21
23
15
29
19
20
17
24
30
28
23
19
26
39
104
88
75
54
85
67
52
62
63
54
53
52
45
54
41
47
29
51
44
29
28
21
27
26
24
30
27
22
23
26
20
15
23
14
20
14
18
16
19
16
23
19
18
11
15
18
17
17
19
15
20
14
18
18
10
19
17
14
2
8
22
11
11
15
19
18
16
10
12
9
11
14
18
23
17
13
10
11
16
16
12
18
16
14
20
10
17
13
13
11
14
16
18
14
14
16
7
17
7
10
11
7
11
14
17
8
14
13
12
15
12
6
14
13
11
18
17
16
12
37
129
79
77
91
77
72
70
84
66
72
67
62
59
67
53
49
43
45
46
34
35
45
33
39
31
37
33
37
33
29
23
38
31
25
26
23
30
17
27
22
26
21
23
24
27
20
24
20
19
30
23
24
18
19
18
23
13
16
15
16
18
32
27
25
24
13
19
17
20
20
32
35
26
23
24
25
16
17
25
21
24
15
28
19
17
16
21
24
26
21
22
19
17
26
20
28
17
20
20
22
16
22
16
14
15
21
16
16
27
22
21
15
23
29
16
21
13
20
18
19
14
10
8
5
5
8
5
7
7
12
10
3
4
9
9
6
8
9
11
7
3
4
6
7
6
7
6
7
8
12
8
7
3
10
11
9
7
6
11
13
4
5
8
11
6
6
8
7
8
6
10
10
3
2
5
10
3
3
6
5
8
7
7
9
7
9
6
4
8
4
5
9
8
7
16
5
5
7
5
11
10
5
5
5
5
9
9
5
15
8
6
3
11
5
10
6
9
8
13
8
9
9
6
7
11
11
4
6
8
14
7
9
62
49
30
51
54
45
31
39
26
31
31
32
26
28
32
27
24
30
23
24
23
30
24
28
37
27
17
15
15
27
28
21
19
15
20
23
21
28
28
23
13
23
13
21
18
18
18
22
26
18
22
20
20
17
21
29
24
20
24
24
28
19
22
22
18
19
21
19
17
25
19
16
18
24
23
18
20
13
21
19
15
19
20
18
22
25
27
19
21
31
24
21
14
11
20
16
22
29
22
23
18
22
21
23
25
11
23
28
19
22
26
28
29
24
22
17
23
22
22
37
122
76
84
62
76
67
54
42
58
52
56
64
58
55
44
45
51
50
46
31
33
29
23
33
27
29
18
24
27
32
33
24
26
22
18
21
16
21
19
20
16
14
13
15
16
23
18
17
19
14
22
12
20
11
12
12
12
15
10
13
14
21
16
12
18
14
18
13
17
8
15
18
8
10
27
21
19
14
13
9
16
15
18
13
19
10
12
17
9
14
14
16
19
17
13
14
8
14
9
16
17
12
12
16
9
14
17
12
11
12
10
12
11
12
7
8
9
13
14
32
106
109
105
84
72
65
63
75
68
49
62
45
67
46
54
42
49
45
54
37
40
48
44
29
29
30
38
29
36
36
31
29
35
35
21
32
26
31
20
26
21
30
32
28
32
18
22
28
26
23
21
23
29
24
23
26
21
27
24
17
27
23
25
18
23
22
17
13
19
20
15
27
28
22
32
12
14
31
18
20
22
21
23
17
19
12
20
27
14
15
17
23
17
20
14
20
21
29
21
28
17
12
23
22
22
14
22
27
29
17
22
12
23
18
20
15
20
19
19
15
12
6
9
12
3
8
9
6
15
8
9
8
3
9
8
7
10
10
8
5
10
5
11
8
7
10
11
8
6
11
6
8
7
7
4
9
5
10
9
6
7
12
11
9
10
5
9
10
7
6
11
12
8
6
6
5
8
13
9
10
11
8
4
15
7
9
6
13
6
11
9
7
7
4
7
5
9
6
6
14
4
10
10
13
6
5
9
6
4
9
7
9
9
3
4
6
4
4
14
9
8
7
8
7
10
8
9
10
4
7
8
6
5
17
10
12
52
43
41
59
36
43
41
37
27
35
26
35
28
31
20
22
29
42
31
25
29
31
26
31
29
27
22
21
28
19
28
18
20
22
22
20
24
13
28
18
21
10
23
35
23
15
14
20
25
29
19
11
25
22
21
20
20
24
18
15
23
17
20
21
25
24
17
16
17
23
17
18
19
18
27
25
18
19
22
14
12
24
17
17
20
17
22
20
28
19
18
18
28
4
10
21
22
24
27
17
24
18
22
20
20
25
25
20
14
18
15
25
25
21
19
22
22
18
15
59
114
82
80
72
71
84
56
64
64
41
56
39
66
59
44
45
49
43
42
37
33
41
24
20
30
27
26
30
28
20
24
26
17
16
27
23
20
18
19
22
14
24
17
17
22
16
13
18
15
10
20
21
22
15
24
20
10
17
19
11
14
18
19
17
11
16
10
11
11
16
10
13
18
16
16
14
9
16
13
21
15
18
13
9
12
13
14
19
23
7
15
18
18
16
15
16
13
16
15
16
13
13
18
13
9
9
12
8
14
10
15
17
13
11
20
14
12
9
12
34
107
96
96
88
86
75
66
55
55
57
64
71
38
53
55
56
40
45
43
51
49
49
39
40
34
36
36
29
41
33
30
39
38
26
40
29
25
26
32
23
30
21
27
22
27
26
29
21
22
30
19
29
29
23
28
27
20
24
18
25
20
15
20
26
15
27
22
14
21
20
21
28
12
20
17
14
16
29
23
25
31
20
23
27
15
25
12
21
20
20
18
20
27
17
23
22
14
18
19
23
18
27
11
23
20
18
15
14
28
23
20
12
15
13
20
18
16
21
19
22
7
10
4
8
5
2
14
8
11
5
5
7
8
8
7
7
9
7
4
7
7
6
6
3
4
7
6
8
7
11
5
8
15
7
12
10
4
7
10
8
7
8
12
4
13
3
8
5
10
5
9
2
10
6
12
8
16
9
9
11
9
9
11
13
9
10
9
3
8
8
8
4
7
8
10
4
6
10
6
9
6
7
6
9
2
13
12
8
9
8
11
9
7
3
4
10
8
9
15
9
11
6
10
8
7
4
12
13
9
7
9
2
5
9
7
8
8
9
10
18
60
57
33
56
48
36
45
42
35
37
43
33
24
27
28
35
29
27
24
27
31
29
29
24
35
25
28
19
28
23
31
21
18
26
22
16
16
21
17
23
20
27
17
20
14
31
28
18
12
22
23
22
18
22
19
16
19
37
18
22
19
11
17
16
23
20
24
16
17
27
25
17
15
26
16
28
16
15
16
24
17
21
13
19
20
25
19
15
17
22
17
17
11
18
22
24
11
14
19
16
17
20
11
20
20
13
22
20
23
25
22
29
21
10
19
18
23
14
19
25
95
75
91
67
81
68
57
67
57
52
59
53
55
42
54
52
41
43
36
45
26
39
39
24
38
30
38
26
26
17
29
22
22
23
25
15
23
17
19
14
17
25
16
21
16
24
20
17
18
18
17
19
16
18
11
8
15
11
7
16
18
14
18
16
14
13
17
13
12
24
18
12
12
14
17
14
13
15
10
15
17
10
13
16
12
13
13
13
13
14
13
11
15
17
14
12
14
21
9
10
20
13
18
9
18
14
14
11
20
13
13
12
14
16
10
12
8
14
10
31
107
95
77
81
88
86
79
67
61
61
59
62
65
37
44
54
44
48
48
42
44
43
48
41
24
38
33
26
27
34
21
25
31
24
27
31
26
28
22
29
25
16
32
29
16
17
22
20
25
24
17
28
25
23
25
16
22
23
29
20
17
21
20
15
28
26
18
17
23
22
14
31
29
19
21
20
24
25
25
21
18
18
17
21
18
18
22
24
14
17
25
16
19
23
26
16
20
16
30
23
17
13
30
18
19
15
24
15
20
17
25
19
19
17
25
24
20
25
19
13
10
5
15
6
4
11
7
8
8
14
6
6
5
7
6
4
7
6
8
10
4
5
8
7
7
7
7
8
13
8
10
3
10
6
7
15
9
6
8
6
6
6
9
7
5
13
9
8
8
8
13
8
3
8
8
3
6
8
6
5
8
4
5
11
7
13
3
5
6
11
3
6
9
10
6
5
4
11
5
4
10
6
6
5
11
4
11
6
5
4
12
7
5
12
4
8
8
4
13
7
1
8
5
7
9
16
6
10
13
6
9
9
7
7
6
8
11
10
10
14
8
9
11
10
63
37
38
51
46
43
51
55
42
37
32
36
30
32
35
33
28
22
32
25
30
18
18
31
21
26
36
26
25
18
23
25
34
19
30
17
25
20
22
31
21
21
22
17
25
21
20
25
19
17
22
17
15
20
21
17
22
11
14
19
29
21
23
13
21
24
18
11
20
15
19
30
13
21
17
13
19
29
32
23
19
17
19
19
18
23
22
14
27
22
19
13
18
24
13
26
16
19
22
23
22
21
28
14
19
21
18
14
24
16
29
27
23
19
18
18
24
15
13
40
95
99
80
65
68
75
46
61
66
53
56
41
58
56
41
49
40
41
35
39
32
42
38
27
25
37
34
20
27
31
21
32
26
25
25
20
20
16
18
15
21
18
13
15
13
15
18
13
15
18
12
24
18
12
22
16
17
13
13
13
12
16
16
13
17
20
20
13
18
16
15
14
11
25
12
6
14
12
28
21
12
13
19
17
13
12
13
8
14
19
14
12
11
8
16
10
17
14
11
12
11
19
13
11
19
10
8
14
13
8
13
16
13
15
16
19
19
14
11
29
126
90
72
88
82
88
68
65
73
62
61
45
51
55
53
53
53
45
39
53
42
40
33
41
36
41
41
38
36
32
32
33
35
33
33
26
37
25
28
24
31
27
18
28
19
27
17
29
29
27
25
30
27
22
15
29
22
21
23
24
28
23
19
18
21
18
22
28
9
26
26
29
17
16
22
17
20
16
19
18
19
26
19
21
20
16
14
24
20
18
29
30
24
17
19
17
23
22
18
23
27
17
14
11
17
22
15
29
25
26
9
19
26
14
23
18
19
30
20
25
11
10
9
8
7
3
6
7
4
5
8
9
12
6
8
8
7
8
6
7
6
7
5
10
5
10
6
3
7
4
11
6
4
7
6
8
5
6
9
9
5
12
2
5
7
9
6
4
7
6
9
9
12
8
12
9
8
9
12
7
14
13
11
9
10
5
5
8
9
3
5
11
15
8
11
10
8
4
10
4
8
7
4
6
9
5
7
12
7
10
11
6
4
12
7
8
6
8
9
9
5
6
8
6
12
9
12
11
6
4
4
8
6
11
10
10
7
11
4
13
5
7
11
10
11
13
11
11
70
46
49
55
37
39
53
23
39
41
46
31
33
36
26
34
39
25
23
33
36
24
25
25
35
18
21
20
25
29
28
21
28
23
21
22
34
23
23
24
24
16
14
21
17
20
24
20
21
9
16
16
22
18
19
20
22
19
23
17
27
19
23
30
17
27
21
23
14
25
18
22
17
20
34
20
16
21
22
10
24
11
25
21
14
15
23
18
21
23
18
28
23
8
29
20
24
20
19
17
20
24
22
9
24
21
13
26
16
23
19
23
26
20
16
18
16
25
17
32
91
88
79
90
67
69
82
54
71
52
68
57
50
56
47
33
34
40
31
48
22
38
39
24
19
32
33
26
19
29
23
26
21
14
19
21
18
14
21
18
21
21
20
20
11
19
25
13
15
20
16
9
23
12
19
21
11
20
14
16
12
16
11
12
15
13
13
14
10
10
11
19
16
17
12
19
12
18
12
10
11
15
15
13
12
9
7
10
16
13
17
20
13
27
11
14
8
20
10
14
12
9
13
9
11
18
9
11
13
14
18
13
21
9
19
18
6
20
17
28
111
90
77
113
94
72
61
53
63
62
71
74
60
49
50
58
40
51
32
38
46
34
30
41
35
39
27
51
28
29
37
20
32
34
29
21
35
28
26
29
29
24
23
29
33
18
19
16
18
18
26
23
20
23
22
26
21
22
28
15
22
14
19
30
22
34
20
18
22
23
24
26
19
17
18
17
21
18
12
18
15
22
22
20
23
20
23
20
18
27
23
16
17
20
21
21
22
21
21
21
16
13
19
19
14
21
25
15
17
20
15
24
16
15
19
19
21
25
18
17
10
6
3
6
6
6
6
14
4
7
8
8
9
4
8
8
4
2
10
11
9
6
6
10
11
10
12
6
9
6
5
3
5
9
9
7
3
6
8
14
3
13
7
15
5
9
9
2
8
10
6
7
6
13
12
6
8
6
5
9
7
11
10
11
5
6
8
13
8
10
5
5
9
14
5
10
12
3
14
9
13
8
14
5
8
6
5
5
7
11
8
8
6
9
10
8
3
5
6
9
12
8
5
9
3
14
9
7
6
10
7
2
11
10
7
7
6
3
7
6
8
10
11
5
7
8
6
10
10
5
9
19
60
55
41
47
43
36
31
47
39
32
27
35
33
26
41
28
29
31
35
34
23
25
26
32
30
28
29
28
32
20
28
21
24
26
22
19
16
19
25
24
24
24
21
22
20
17
22
18
22
25
17
17
18
25
16
22
18
17
15
18
29
27
18
19
18
22
24
20
14
22
16
18
22
25
21
21
19
17
24
17
24
20
11
14
23
19
25
15
13
25
24
20
15
26
18
16
28
19
18
15
20
7
16
18
18
28
27
24
21
17
18
15
25
16
14
15
20
14
17
41
87
100
75
73
71
54
43
65
56
60
53
60
47
39
50
41
42
30
29
38
34
33
33
22
36
24
28
39
26
30
29
24
23
35
23
29
23
20
15
13
21
20
20
11
18
26
22
21
15
15
13
15
17
15
12
13
12
17
14
11
17
19
19
11
14
17
17
18
14
21
17
10
20
16
12
14
15
10
10
15
14
20
16
13
14
12
18
15
10
13
20
15
10
14
11
11
16
12
22
9
12
12
11
9
14
21
20
13
12
11
14
16
6
17
19
16
15
11
16
29
113
99
80
67
94
69
81
75
60
59
55
59
54
44
54
49
54
37
43
44
44
50
41
47
35
29
35
34
34
35
27
29
29
33
31
26
24
25
27
25
24
27
26
19
29
19
18
29
28
13
21
22
21
22
26
30
29
25
24
31
20
22
21
20
23
21
21
15
31
25
18
19
20
27
20
14
20
19
18
25
16
20
24
27
25
19
20
17
11
25
19
16
17
15
24
24
15
29
21
19
18
25
23
21
15
22
24
20
24
18
24
25
25
11
27
21
17
26
22
11
10
7
6
9
9
2
6
6
3
11
6
6
6
5
5
14
10
4
5
10
10
8
9
14
10
10
10
11
8
11
10
11
3
8
7
3
6
7
9
11
4
4
8
3
9
9
11
7
5
7
8
7
13
9
3
8
10
6
6
8
5
12
9
6
10
10
4
6
4
11
3
5
8
6
13
8
10
8
16
12
4
7
4
5
10
6
6
9
11
7
7
4
7
6
10
6
5
7
11
10
4
11
4
12
7
5
6
8
11
7
2
5
8
9
10
4
7
13
12
8
12
7
9
11
5
8
10
4
4
10
9
8
2
11
8
18
56
54
39
42
46
41
31
40
47
30
30
37
37
40
25
34
32
36
18
20
35
27
20
23
29
27
20
25
25
21
16
26
21
27
19
24
21
18
22
24
22
25
19
36
32
17
18
25
24
19
16
15
19
20
24
25
18
22
16
17
15
24
22
23
15
25
21
22
25
25
18
20
20
21
18
24
14
15
21
32
17
24
17
13
18
20
26
17
25
23
28
28
15
20
17
28
23
25
24
14
21
28
14
20
20
25
13
18
17
19
15
23
22
19
20
19
17
19
21
33
103
108
84
75
72
76
81
67
63
54
57
68
35
50
58
45
34
40
49
39
38
28
35
31
29
40
27
22
29
23
17
21
20
26
23
24
27
24
30
14
29
23
13
20
11
20
19
13
26
20
19
17
9
9
13
17
14
19
15
12
16
16
18
16
23
9
17
13
19
12
12
21
14
13
23
15
19
13
23
17
18
14
7
18
19
14
8
16
14
13
18
12
19
19
16
13
16
18
13
15
12
16
17
7
15
9
11
15
12
11
8
21
18
13
10
17
13
12
11
22
117
101
87
99
99
78
73
68
55
58
63
51
69
44
48
45
36
51
35
32
40
40
40
29
28
30
37
40
28
32
25
29
26
31
17
24
37
21
32
20
29
30
14
21
29
18
18
19
21
23
25
27
22
30
27
18
18
27
20
17
26
30
23
15
17
17
24
27
21
28
18
23
19
18
22
23
13
26
14
16
22
16
20
22
17
28
18
19
27
14
24
19
22
16
24
22
22
15
21
16
18
24
22
20
16
22
18
23
20
22
15
15
19
18
16
21
28
23
23
17
12
5
5
11
11
5
7
10
15
7
8
7
8
10
4
7
13
3
11
10
9
6
3
5
5
5
9
8
10
8
7
11
5
4
7
6
10
5
7
8
18
11
9
11
6
6
9
10
7
11
8
8
9
11
11
10
13
4
10
9
8
9
11
7
9
5
16
13
7
3
6
10
10
8
7
14
8
6
9
10
8
11
6
5
6
7
7
10
9
9
6
7
4
14
5
8
3
8
5
12
9
8
6
3
13
6
6
8
7
15
8
11
13
11
5
12
8
5
7
4
8
8
10
3
13
12
7
10
5
10
9
13
6
4
14
7
11
6
10
11
57
37
45
47
49
47
31
33
55
42
28
34
22
30
40
36
36
32
27
37
30
31
29
24
21
24
26
30
26
23
33
21
27
19
24
19
19
31
18
28
19
18
11
22
20
26
23
22
10
24
24
20
25
26
18
25
22
25
24
20
25
16
20
14
17
18
23
26
19
27
15
20
15
24
19
21
15
22
16
24
31
17
14
20
21
27
18
17
17
25
16
22
26
20
28
22
17
19
19
18
8
13
16
16
28
20
27
24
16
16
21
19
23
25
21
23
21
18
16
22
98
77
80
94
69
55
68
70
33
58
52
42
44
46
49
48
44
38
44
37
32
28
32
28
25
28
31
21
26
27
18
26
13
25
23
25
20
21
21
17
16
19
11
15
21
16
13
15
24
19
11
21
13
19
15
11
15
18
15
6
9
10
7
16
18
7
13
13
14
12
20
16
15
15
15
10
15
13
14
15
23
21
9
13
6
11
12
14
15
7
9
10
10
17
9
10
8
14
13
8
13
15
14
9
11
7
14
10
12
18
19
11
18
19
15
19
13
13
21
32
139
82
84
84
80
78
71
67
57
66
66
55
50
46
62
45
48
51
44
43
46
33
45
32
39
30
41
41
35
31
34
28
27
32
16
22
26
23
29
25
22
24
28
37
29
19
25
20
27
21
20
26
30
23
18
18
21
20
18
27
18
26
27
20
23
10
21
23
16
27
16
25
32
28
23
17
11
16
21
27
23
16
22
27
26
29
15
22
22
17
20
15
16
18
29
23
17
22
23
21
19
23
24
23
19
20
15
27
11
18
29
17
27
21
18
22
16
29
26
22
13
5
8
6
7
8
6
8
11
5
10
5
7
11
5
5
12
5
9
7
8
4
14
4
5
6
7
10
13
14
9
12
12
8
10
11
13
10
10
5
7
7
4
3
5
8
7
11
10
7
8
9
9
10
9
10
9
9
10
8
7
7
8
8
11
5
10
8
9
9
8
7
1
10
9
6
10
9
5
2
14
10
13
8
7
7
7
8
9
4
3
2
5
4
6
9
10
8
11
5
10
7
12
4
8
10
9
5
9
7
8
8
12
7
5
12
7
6
9
11
12
6
6
3
4
10
4
2
8
16
7
12
7
9
9
8
6
9
10
7
10
14
10
17
72
44
48
40
36
43
44
31
41
42
32
38
37
36
23
26
33
22
31
25
24
29
32
25
23
29
24
23
37
27
31
22
22
30
19
29
25
14
12
13
31
21
20
13
23
16
20
17
28
16
18
15
19
21
25
14
21
23
19
22
29
25
21
22
24
18
17
16
19
12
26
26
20
18
22
31
23
15
22
29
16
19
18
24
24
17
20
22
14
14
28
23
13
27
16
18
22
28
19
18
20
24
21
18
18
18
23
19
31
19
20
20
16
20
26
12
28
30
23
35
102
82
78
74
71
55
52
64
83
43
53
44
43
47
52
48
40
51
38
22
40
39
25
28
23
37
32
32
28
23
20
29
20
16
27
16
16
30
13
16
19
33
16
20
18
14
24
19
18
14
21
15
21
21
15
18
8
16
17
18
21
14
13
17
11
13
14
13
20
15
24
17
10
14
9
21
12
16
18
15
16
14
14
13
17
14
11
14
10
17
17
10
16
17
12
15
14
12
16
11
17
9
16
9
15
13
15
13
12
11
19
12
15
9
9
17
11
17
7
25
100
91
94
86
80
72
83
68
66
62
57
71
48
47
45
44
56
49
50
39
53
49
40
28
37
33
41
28
38
31
29
30
24
26
25
26
26
28
29
38
20
18
29
32
33
23
15
19
17
24
25
27
31
25
23
18
22
21
16
19
23
17
21
17
22
18
25
23
23
20
25
28
19
28
20
24
22
20
15
26
24
18
21
21
26
17
20
22
26
15
14
11
19
22
17
17
24
16
19
20
24
21
16
10
14
31
22
26
17
21
19
16
27
22
24
22
21
17
25
21
4
9
11
8
12
6
8
5
10
9
3
7
6
8
6
9
12
5
10
4
9
3
4
8
4
10
9
6
8
8
7
6
5
6
16
6
10
8
12
9
6
13
5
7
7
8
10
6
7
9
11
7
9
7
7
9
12
10
9
8
6
8
14
6
8
7
12
9
9
7
6
9
5
13
9
14
8
12
5
8
9
9
10
7
12
8
4
7
11
6
16
5
7
14
6
5
6
4
7
9
5
7
8
6
5
8
4
11
9
10
9
11
7
8
9
7
9
12
8
10
2
7
4
8
10
6
7
10
7
8
10
2
16
7
6
11
9
5
9
9
10
6
10
6
10
14
7
15
53
49
49
47
36
38
37
42
46
37
33
46
33
27
26
35
38
22
31
21
32
31
22
24
25
27
22
18
22
17
31
34
26
22
25
19
26
21
23
20
20
26
15
22
16
19
21
15
27
18
18
13
15
19
23
16
16
21
21
21
25
28
17
20
22
17
16
20
22
24
24
25
14
24
20
22
24
28
20
24
15
25
24
14
16
19
16
27
17
23
24
15
11
16
19
26
25
16
13
26
19
19
22
13
25
20
9
23
26
24
24
27
26
20
20
14
24
23
22
41
95
91
82
93
77
68
52
61
64
58
50
60
36
48
31
43
43
32
39
41
31
33
28
29
35
24
28
25
26
21
24
27
21
22
35
20
27
23
19
18
10
12
19
14
12
14
18
16
13
24
12
14
12
15
11
22
13
19
25
12
9
15
9
14
19
13
20
16
12
18
19
17
8
10
18
6
13
18
16
17
16
16
14
7
12
20
17
18
13
14
14
13
16
10
15
11
11
17
14
11
13
17
11
13
14
14
16
11
12
11
21
19
12
14
13
4
13
17
12
34
116
79
100
91
84
71
56
63
65
60
65
64
63
44
51
49
38
51
48
39
36
35
32
44
32
35
35
31
27
23
28
28
37
29
25
29
32
29
26
24
33
26
24
17
23
33
16
25
21
19
20
22
20
24
24
27
20
16
19
21
30
19
24
15
16
28
22
17
19
19
17
21
16
21
18
15
13
22
30
22
17
14
22
21
15
27
29
19
17
17
21
28
24
22
23
17
22
23
17
23
22
22
17
22
21
20
13
14
19
10
22
20
21
16
28
25
20
13
19
25
6
7
5
7
10
2
8
15
8
9
7
5
5
5
3
3
8
2
10
6
7
9
5
8
9
8
4
7
5
9
6
15
6
2
13
7
8
9
10
4
9
7
4
10
8
3
9
9
11
5
9
6
4
4
11
12
8
9
4
7
10
11
14
11
5
16
13
7
9
7
4
3
3
6
6
13
4
6
6
11
10
8
6
6
4
4
6
8
7
9
7
8
11
10
11
8
12
5
10
6
3
10
10
12
11
8
9
5
8
8
5
9
8
11
7
7
11
11
3
7
3
4
11
8
7
4
8
16
13
7
10
6
5
15
8
6
5
7
14
9
7
7
7
11
9
9
5
11
15
6
13
16
58
53
56
43
55
52
35
35
46
30
40
40
47
37
48
25
21
37
29
20
25
24
25
30
27
19
22
32
20
27
26
21
30
25
24
19
17
18
22
24
24
20
26
25
18
21
24
20
16
24
26
20
21
23
22
13
19
22
21
16
22
22
18
21
14
21
24
16
17
20
27
25
25
16
18
19
23
23
15
20
17
24
24
23
12
16
16
17
18
17
20
20
15
15
20
30
19
18
19
15
24
18
23
13
23
23
17
16
16
20
19
17
27
16
20
20
16
23
19
32
94
92
91
71
62
72
76
60
63
42
58
47
52
51
40
56
40
43
50
45
34
35
34
32
23
30
30
27
28
28
39
21
19
20
16
17
18
29
17
25
18
12
20
27
15
27
15
16
25
22
16
16
16
11
19
10
13
21
14
14
14
13
10
12
11
19
15
10
16
12
16
19
16
16
6
15
19
12
11
16
16
16
10
18
13
21
8
14
21
21
16
10
17
12
12
17
9
11
12
12
16
13
6
10
14
12
17
15
10
18
18
13
18
15
9
13
18
12
16
28
116
80
93
87
76
83
67
78
69
73
57
61
63
49
36
50
46
66
42
45
39
41
38
37
36
35
46
33
37
33
29
33
34
38
28
25
23
26
29
27
29
22
28
26
29
29
21
24
27
23
26
32
18
33
25
23
18
16
16
23
28
14
21
27
22
23
20
25
17
9
17
15
29
17
28
25
21
25
28
11
22
26
19
31
28
19
27
13
16
19
24
20
23
21
14
25
15
25
28
24
19
20
30
13
22
9
22
26
20
18
20
21
16
28
21
18
22
20
25
16
7
9
9
6
5
5
12
6
10
4
7
8
13
10
11
4
11
7
8
7
5
9
14
8
8
11
5
10
7
7
11
9
8
11
5
8
12
5
7
9
6
11
5
4
5
10
4
7
10
9
7
5
9
6
17
7
8
8
8
7
11
7
7
3
8
10
9
9
8
15
13
7
5
11
9
6
12
6
7
8
10
6
9
15
6
4
9
7
8
7
6
11
9
9
9
6
14
5
15
5
11
7
4
11
8
6
11
10
6
6
16
3
8
2
12
7
8
9
4
6
6
5
13
6
8
8
8
8
11
10
6
9
7
15
8
6
14
8
11
7
11
6
8
10
12
6
6
11
10
6
9
6
10
6
5
9
43
46
52
50
46
55
46
55
37
42
32
34
30
33
27
27
31
30
24
24
22
23
27
22
30
20
28
34
27
25
25
21
20
27
29
18
30
26
24
23
17
19
17
15
24
19
25
26
18
24
25
20
24
17
21
20
18
18
18
24
19
23
16
20
25
15
24
27
21
23
21
15
29
18
16
20
25
22
19
24
12
24
23
21
20
23
16
25
22
27
22
27
18
13
20
24
25
26
20
25
25
14
21
23
22
20
17
25
21
7
17
19
21
29
24
21
15
20
24
16
8
6
10
10
7
5
7
5
2
5
4
4
7
5
6
5
9
12
9
11
5
6
4
6
7
8
7
5
9
8
2
7
1
5
7
7
6
5
6
8
2
4
5
5
4
3
5
6
10
5
8
6
4
5
3
10
6
4
6
9
2
2
9
6
4
10
4
9
2
6
8
3
7
6
9
6
7
7
6
8
4
7
8
6
8
5
5
4
8
7
5
8
7
3
7
5
12
9
6
2
5
5
5
10
2
10
5
9
6
10
8
9
10
5
8
7
7
8
4
5
12
11
8
5
9
6
10
7
4
8
6
4
6
3
4
7
4
7
5
7
7
2
6
3
6
7
3
1
11
4
4
9
2
9
10
5
5
7
9
3
6
5
7
9
3
11
7
5
7
9
5
5
8
2
4
4
6
9
8
4
6
1
3
6
4
7
6
4
