#Saved Data from the class pulsed_measurement_logic on 18.11.2022 at 11h25m10s.
#
#Parameters:
#===========
#
#bin width (s): 1.0000000000000000e-08
#record length (s): 1.0030000000000001e-05
#gated counting: False
#Number of laser pulses: 2
#alternating: False
#Controlled variable: [2e-06]
#
#Data:
#=====
#Signal(counts)
0
0
1
0
1
0
0
0
0
2
0
0
0
0
0
3
1
0
0
1
0
0
0
1
31
55
50
46
49
40
27
39
37
27
29
27
26
28
28
20
30
15
19
12
21
20
18
17
21
15
15
13
12
11
17
12
9
18
15
11
12
8
12
14
8
12
12
10
7
9
12
8
7
4
12
12
6
9
13
10
8
10
6
5
8
13
9
9
7
13
11
4
7
9
10
14
11
6
9
8
9
12
8
11
4
15
11
6
2
13
5
6
5
10
9
7
12
8
12
4
14
7
8
8
9
8
10
20
13
10
12
10
8
14
7
9
10
12
11
7
8
8
9
12
12
7
7
13
12
11
10
9
10
8
8
7
10
7
8
4
6
10
6
10
9
9
9
8
6
5
12
11
16
11
11
12
11
15
7
11
9
14
9
8
9
6
11
8
13
8
9
9
12
11
13
15
4
10
13
5
9
13
7
7
6
7
12
14
10
8
5
13
10
9
13
9
9
10
11
9
10
17
13
10
7
0
0
2
0
0
0
1
1
0
1
0
0
0
0
0
0
0
0
1
0
1
3
0
0
0
0
1
0
0
0
0
1
0
0
0
0
1
1
0
0
2
0
0
0
3
1
0
1
0
0
1
0
1
0
1
2
1
1
0
0
0
0
0
0
0
0
0
1
2
0
0
3
0
1
0
1
0
1
1
0
0
1
0
1
1
0
1
0
0
2
0
1
0
0
1
1
1
0
1
0
0
0
2
0
0
1
0
1
1
1
1
0
0
0
1
0
0
0
0
2
0
0
0
0
0
1
0
0
1
0
0
1
0
3
0
0
0
0
1
0
1
0
0
0
0
0
0
0
0
0
0
0
0
2
1
0
0
1
0
0
1
1
0
1
1
1
2
0
1
0
0
0
0
1
1
0
1
0
0
1
1
0
0
0
0
1
0
0
1
0
1
0
0
0
1
1
0
0
2
0
4
35
45
58
35
38
39
41
38
37
25
29
38
31
24
21
18
19
22
15
11
21
16
16
19
18
18
18
13
11
9
19
14
17
13
6
13
15
12
8
10
14
14
14
13
10
12
9
9
7
16
15
11
13
8
10
16
16
6
12
6
21
12
11
12
8
11
3
11
8
13
10
14
6
5
15
8
11
13
8
17
8
7
10
12
10
10
15
11
7
12
9
12
10
8
7
6
15
7
15
4
8
11
11
6
8
8
16
10
10
12
13
11
11
10
8
12
6
9
13
13
10
16
11
14
8
8
13
8
11
13
8
5
6
8
12
12
14
7
10
11
15
9
6
14
14
8
9
7
14
14
9
7
5
5
12
15
13
11
8
11
12
8
12
13
11
10
15
8
15
12
8
11
12
13
9
14
11
9
9
11
10
10
11
9
11
9
12
9
14
12
11
14
10
9
12
12
9
6
13
0
0
0
1
3
0
1
1
0
1
1
0
1
0
1
0
1
0
1
0
0
1
1
0
1
1
1
0
1
0
0
1
1
0
0
0
1
0
1
1
1
0
0
1
1
2
0
1
0
0
0
0
1
0
0
0
0
0
0
1
1
1
0
2
1
0
0
0
0
0
1
0
1
0
1
0
0
0
0
0
0
1
1
0
0
0
1
0
1
0
0
1
1
0
1
1
0
1
0
0
1
0
2
0
0
0
0
1
2
0
1
0
0
0
0
3
0
0
0
0
1
1
1
0
0
0
0
0
0
1
0
0
1
0
0
1
0
2
1
1
0
0
0
1
3
0
1
1
2
0
0
0
1
0
1
1
1
0
0
0
0
1
0
1
0
0
0
0
3
0
0
0
0
0
1
0
1
0
0
0
0
2
2
0
0
0
0
0
0
0
0
0
3
1
1
1
0
0
0
1
0
0
0
1
0
0
0
0
0
0
0
1
2
0
0
3
0
1
0
1
0
0
0
0
0
1
0
0
2
0
1
1
1
1
1
0
2
0
0
0
2
0
2
0
0
0
1
1
0
1
0
1
0
2
0
0
0
0
2
0
0
0
0
0
1
0
0
1
0
0
0
1
1
0
0
0
0
0
2
0
1
0
0
2
0
0
0
0
0
0
0
1
1
0
0
0
0
0
2
0
0
0
0
1
0
1
1
1
1
0
0
1
0
0
0
0
0
0
0
0
1
1
1
0
0
0
1
0
1
0
3
1
0
1
0
0
1
0
2
0
1
0
0
1
0
0
0
0
0
1
1
1
0
0
0
0
0
0
0
0
0
0
2
0
0
0
0
0
0
1
0
0
2
0
1
0
0
1
