#Saved Data from the class pulsed_measurement_logic on 18.11.2022 at 10h34m53s.
#
#Parameters:
#===========
#
#bin width (s): 5.0000000000000001e-09
#record length (s): 1.0025000000000000e-05
#gated counting: False
#Number of laser pulses: 2
#alternating: False
#Controlled variable: [2e-06]
#
#Data:
#=====
#Signal(counts)
0
1
1
0
0
1
1
0
0
1
0
1
1
0
0
1
1
1
2
0
2
1
1
3
0
1
3
0
1
2
2
1
0
1
2
0
0
1
0
1
0
0
0
1
0
0
0
3
13
28
24
30
27
32
31
25
27
35
33
24
25
32
27
28
31
25
29
25
31
24
19
18
16
27
21
24
23
20
28
20
15
21
19
22
20
20
23
20
23
24
23
21
21
21
24
29
18
20
17
20
16
13
13
23
18
19
13
10
18
24
14
20
17
29
22
18
17
14
16
15
19
17
25
17
18
13
16
18
20
19
17
22
13
15
24
13
24
22
9
24
15
15
10
15
10
15
21
19
8
20
14
21
11
17
22
14
12
15
17
17
15
14
20
23
13
17
16
12
5
16
19
14
9
15
17
12
12
15
20
17
8
10
14
10
15
13
14
8
12
9
12
11
10
14
11
10
19
14
15
14
13
13
15
13
13
19
13
13
16
10
13
13
21
23
9
12
6
14
12
6
11
18
16
13
19
12
14
17
7
16
10
11
16
12
14
15
13
13
12
12
10
11
18
17
12
13
9
10
14
13
9
7
8
9
12
10
11
13
8
9
16
13
8
11
15
13
11
9
16
7
11
15
15
8
11
13
15
15
14
15
12
16
13
13
11
15
7
12
11
12
7
16
15
13
13
16
10
16
11
14
14
10
17
10
9
4
14
14
13
9
10
10
11
15
11
7
12
15
15
9
10
10
11
12
14
7
12
24
14
20
14
8
13
7
12
15
15
11
11
11
10
10
14
12
12
9
11
10
8
12
19
7
13
11
7
10
11
14
10
10
7
12
15
10
13
18
19
18
12
13
13
9
13
16
13
16
19
10
6
10
6
8
10
12
11
17
18
13
13
14
11
7
5
10
7
14
11
12
10
17
11
17
13
7
10
11
13
6
3
13
16
8
20
10
17
19
11
21
12
13
8
9
14
19
11
16
21
10
9
9
16
12
10
10
14
13
17
10
11
14
7
13
7
10
17
9
12
12
15
10
12
3
0
0
0
0
2
1
1
0
2
2
1
1
0
0
3
0
2
1
2
1
0
1
1
0
1
1
1
1
0
2
0
0
0
0
1
2
0
1
2
1
0
1
0
1
4
1
1
1
1
1
0
3
1
2
1
0
0
2
1
0
2
0
1
3
1
1
1
1
3
0
1
1
0
1
0
0
0
1
2
0
2
2
1
0
2
3
1
1
2
1
2
0
1
2
0
0
3
3
2
1
2
2
0
2
1
1
2
2
1
0
1
1
1
2
0
2
0
1
0
0
1
1
1
1
0
4
1
0
2
1
2
1
0
2
0
0
0
2
2
3
2
0
1
0
1
2
0
0
0
0
0
0
0
0
0
2
1
0
1
1
0
1
1
1
2
1
1
0
3
0
1
0
2
1
3
0
0
1
0
1
3
1
0
0
0
2
1
0
1
0
2
0
0
2
0
0
3
1
0
0
0
0
4
0
0
1
1
0
1
1
1
1
0
1
0
0
0
1
3
2
0
1
1
1
0
1
3
1
1
0
0
0
0
1
0
0
0
2
6
2
0
2
0
1
0
1
1
0
1
1
0
3
1
1
1
0
0
2
0
1
0
1
0
1
0
1
1
1
2
0
2
3
1
2
1
0
0
2
0
0
0
0
0
0
0
0
2
2
0
0
0
1
1
1
2
3
0
2
1
0
0
1
1
0
1
1
3
1
1
1
0
3
1
1
0
0
2
0
2
1
2
1
1
0
1
0
0
0
0
1
0
1
0
0
4
6
1
1
0
0
0
0
1
1
1
0
1
0
1
0
1
1
0
0
2
2
0
0
0
0
1
0
1
0
0
1
1
1
1
1
4
1
0
1
2
0
1
2
2
4
0
1
0
0
1
1
2
0
0
0
1
1
0
3
2
1
1
1
2
2
11
13
28
34
25
37
27
36
29
29
28
22
22
33
26
26
24
21
28
28
25
27
24
19
18
26
21
23
26
25
19
19
21
18
27
17
28
24
17
25
23
17
31
14
19
16
23
26
20
16
13
22
25
15
14
19
12
19
17
19
18
14
18
11
19
14
22
24
18
13
21
14
16
20
17
11
19
25
20
16
15
21
24
18
14
20
17
16
14
11
14
13
14
13
15
17
13
13
23
11
13
18
20
6
11
14
16
14
19
21
14
15
13
16
13
19
12
9
18
20
12
10
12
9
17
23
13
14
9
19
12
14
12
15
8
12
10
17
13
21
13
12
12
16
20
9
13
13
14
17
17
14
8
14
15
13
8
10
11
15
14
11
15
11
12
13
13
15
14
17
7
12
13
7
14
22
16
11
13
6
11
15
12
20
15
9
16
13
12
9
15
14
7
11
12
12
14
12
13
13
11
19
17
17
14
11
15
12
15
16
15
13
15
11
11
17
12
15
13
18
11
15
15
11
11
11
3
14
11
9
16
9
14
15
13
15
11
11
15
19
10
9
10
14
22
16
15
11
16
14
14
9
14
14
11
7
20
13
11
15
19
15
7
9
13
12
13
23
22
19
8
18
12
17
20
18
11
13
9
12
20
12
19
10
15
11
13
15
17
14
13
9
18
8
14
11
13
13
13
12
16
8
10
14
15
18
14
11
10
14
8
8
14
7
11
12
19
4
5
8
9
13
12
11
18
18
12
17
13
9
9
16
11
11
11
12
13
14
14
7
16
14
12
14
14
11
8
9
9
14
10
7
19
17
13
12
7
15
15
15
12
15
10
21
11
13
13
11
15
16
12
8
15
15
10
17
16
12
17
7
15
22
13
9
8
6
14
14
8
18
9
6
12
7
12
12
16
5
1
1
2
0
5
0
2
2
0
1
0
1
1
3
0
1
0
1
2
1
0
0
1
2
2
3
3
0
1
2
2
2
1
2
1
1
1
2
2
2
2
0
1
2
0
1
2
0
0
1
1
2
0
3
1
2
1
2
0
1
0
0
2
0
0
3
1
0
1
2
0
2
3
3
0
2
3
1
0
1
0
0
0
2
0
0
0
1
0
1
1
0
1
0
0
0
2
1
1
0
1
0
0
1
1
1
0
1
0
0
0
0
2
1
2
1
1
0
0
1
3
1
0
2
0
0
2
3
0
1
1
1
1
0
1
1
1
1
2
1
0
1
1
2
0
1
1
2
0
1
1
1
0
1
0
1
0
1
1
1
0
2
0
0
3
0
0
1
1
0
0
1
2
0
2
0
1
3
0
1
0
2
0
1
1
1
0
0
1
1
2
0
0
0
0
0
1
0
0
1
0
1
1
0
2
0
2
0
1
0
0
0
2
2
0
0
0
2
0
0
1
0
3
0
1
0
3
1
1
0
0
1
0
0
0
0
1
1
2
0
0
2
3
1
0
1
1
1
0
0
1
3
1
3
3
1
0
1
0
0
1
1
0
1
0
0
0
0
1
1
2
0
1
2
0
1
3
2
1
2
2
1
1
1
0
1
0
1
0
0
2
2
0
1
1
1
1
2
1
2
2
1
0
2
0
1
1
0
1
0
0
0
2
0
0
0
1
2
1
0
1
1
2
0
1
2
3
1
0
2
0
1
1
0
0
0
1
0
0
1
1
0
0
1
1
1
1
0
2
0
2
1
1
0
0
2
0
1
0
0
0
1
2
0
0
3
1
0
1
1
1
0
2
1
2
0
3
0
0
1
0
1
0
0
0
1
1
0
1
0
1
2
2
1
1
0
1
2
0
3
0
1
0
1
0
1
2
0
2
1
0
1
0
1
0
1
0
1
1
1
0
1
1
0
1
1
2
1
0
1
3
1
0
0
0
1
1
1
2
1
0
0
2
2
1
0
1
1
3
1
1
0
1
3
1
0
1
1
1
1
0
0
1
1
1
0
0
2
0
1
2
1
1
2
0
1
2
1
1
1
2
0
0
0
1
1
0
1
2
1
0
0
0
3
1
0
1
1
2
0
2
2
3
1
1
0
0
2
0
0
1
2
1
0
2
2
2
0
1
0
1
1
1
1
1
0
3
1
1
2
0
1
1
0
1
2
0
0
0
1
0
0
1
0
3
1
2
0
2
1
1
1
2
0
0
1
2
2
2
0
0
2
1
0
0
1
3
0
1
0
1
0
0
1
0
2
1
1
1
1
0
0
0
2
1
0
1
0
1
1
2
2
0
0
1
1
0
0
0
0
2
1
1
0
0
1
1
1
0
0
0
1
2
0
1
2
1
0
1
0
1
2
2
1
0
0
0
0
1
0
3
0
1
1
1
0
1
1
0
2
0
2
1
1
2
0
3
1
0
0
0
2
1
2
1
1
1
2
2
3
0
1
1
1
1
0
1
1
1
1
2
0
1
1
1
1
2
1
2
1
1
0
2
1
4
1
0
2
0
1
1
0
3
1
1
1
1
1
0
2
0
2
3
1
1
3
1
2
0
1
0
0
1
1
0
1
1
2
0
0
0
0
0
3
0
1
0
1
1
2
1
0
1
0
0
2
0
1
1
0
0
0
2
2
0
0
0
0
1
0
0
1
0
1
0
