#Saved Data from the class pulsed_measurement_logic on 18.11.2022 at 11h21m49s.
#
#Parameters:
#===========
#
#bin width (s): 1.0000000000000000e-08
#record length (s): 1.0030000000000001e-05
#gated counting: False
#Number of laser pulses: 2
#alternating: False
#Controlled variable: [2e-06]
#
#Data:
#=====
#Signal(counts)
2
0
0
1
0
0
0
0
2
0
0
0
1
0
0
0
0
0
1
1
0
2
1
9
79
106
95
103
92
84
76
59
77
60
60
54
53
33
39
39
39
48
38
34
37
39
31
23
28
36
24
29
27
25
25
28
13
30
18
24
17
24
20
23
12
23
29
17
30
23
18
23
14
16
27
12
23
20
19
21
17
18
19
16
21
21
15
17
18
23
11
22
13
26
26
22
21
19
14
20
19
16
18
13
18
13
20
18
15
25
19
28
20
10
19
18
17
18
16
22
10
18
19
22
16
19
25
15
18
22
16
19
25
16
25
16
15
18
17
28
23
21
15
17
26
21
19
22
24
22
13
22
12
19
21
18
18
15
19
14
23
22
20
24
22
20
13
22
17
15
13
27
16
25
24
20
16
23
27
22
28
21
21
15
13
22
18
32
24
21
19
16
22
26
22
23
10
17
21
14
22
20
23
33
19
18
15
11
23
18
16
21
18
19
15
19
18
17
24
19
17
13
22
16
23
6
0
2
1
1
0
0
1
0
1
1
1
1
1
1
0
0
0
2
2
1
2
0
1
0
0
0
1
0
1
0
2
2
0
4
0
0
1
0
0
2
0
1
0
1
0
0
0
0
1
0
1
0
1
0
0
2
2
1
0
0
0
0
0
1
0
0
1
0
0
1
0
0
1
2
0
0
0
1
1
0
0
0
0
1
1
0
0
0
1
3
0
0
2
0
0
0
1
1
1
1
3
1
0
1
0
1
0
2
2
1
1
1
1
1
0
0
0
0
1
1
1
1
0
1
1
0
1
0
0
0
1
0
1
1
1
1
0
0
2
0
0
0
0
0
0
0
0
1
0
0
1
2
2
0
0
0
0
2
1
2
0
0
0
0
0
2
1
0
0
0
0
2
0
1
1
0
0
0
0
0
0
2
1
0
0
4
1
0
1
0
0
2
2
1
2
0
0
0
1
2
59
94
90
91
86
76
80
61
67
58
53
39
51
49
47
46
36
53
31
30
33
34
29
23
21
26
24
28
28
15
16
16
22
22
22
22
19
15
18
26
23
19
22
23
20
13
12
20
27
11
18
19
18
19
11
24
17
15
23
21
22
18
14
22
18
22
17
16
18
17
12
19
16
21
25
25
18
16
17
21
23
16
21
22
21
19
13
15
21
21
20
16
16
16
23
20
18
14
20
14
20
19
17
23
24
12
31
17
15
17
19
16
22
20
11
29
20
13
25
25
22
27
16
14
16
23
24
19
21
15
22
24
15
14
19
20
22
20
23
20
21
19
13
16
24
17
16
13
15
14
17
22
15
19
11
21
24
14
19
17
23
22
18
17
12
18
18
20
15
20
18
20
21
17
20
14
22
14
20
18
23
13
14
16
14
11
27
25
16
28
10
24
14
17
17
14
22
17
10
5
0
0
0
0
0
1
2
0
1
0
1
3
2
1
0
1
0
0
0
0
1
0
0
1
1
1
0
0
0
2
0
2
1
0
2
1
0
0
1
0
1
0
0
0
0
1
1
0
1
0
2
1
0
0
0
2
0
1
0
0
2
0
1
0
0
0
0
0
0
0
0
0
0
0
3
0
1
0
1
1
1
0
0
1
1
0
0
1
0
2
0
1
0
1
0
0
1
1
0
0
1
0
0
1
0
0
1
1
0
0
1
1
2
1
0
0
1
0
2
1
1
0
0
0
0
1
0
0
0
1
0
0
1
0
1
1
1
0
0
0
1
1
0
0
1
1
1
0
0
0
3
0
0
0
1
0
0
0
0
2
0
1
0
0
0
1
0
1
0
1
0
0
2
1
0
1
2
0
0
0
1
3
2
1
0
1
0
2
1
0
1
0
3
0
0
0
0
0
0
0
0
1
0
1
0
0
1
1
0
0
1
0
0
0
1
0
0
1
1
1
0
0
1
1
1
0
1
1
1
1
0
0
2
0
1
0
1
1
0
0
0
2
2
0
0
0
1
1
1
1
0
2
1
0
0
0
2
2
1
0
2
0
0
0
0
0
2
0
0
0
1
1
0
0
2
1
1
0
0
0
0
0
0
1
0
0
1
0
0
0
2
0
2
0
3
1
2
0
0
0
0
0
0
0
0
0
0
1
1
0
0
0
0
2
2
0
0
0
1
1
0
0
1
0
0
0
1
2
0
0
1
1
0
0
1
0
0
1
0
1
1
2
1
0
0
0
1
1
2
1
0
0
0
1
1
0
1
1
2
2
1
0
0
1
0
0
1
1
1
0
0
0
0
1
2
0
0
