#Saved Data from the class pulsed_measurement_logic on 18.11.2022 at 16h39m30s.
#
#Parameters:
#===========
#
#bin width (s): 5.0000000000000001e-09
#record length (s): 8.6824999999999996e-05
#gated counting: False
#Number of laser pulses: 156
#alternating: False
#Controlled variable: [2e-08, 4e-08, 6.000000000000001e-08, 8e-08, 1e-07, 1.2e-07, 1.4e-07, 1.6e-07, 1.8e-07, 2e-07, 2.1999999999999998e-07, 2.4000000000000003e-07, 2.6000000000000005e-07, 2.8e-07, 3.0000000000000004e-07, 3.2e-07, 3.4000000000000003e-07, 3.6000000000000005e-07, 3.8e-07, 4.0000000000000003e-07, 4.2e-07, 4.4e-07, 4.6000000000000004e-07, 4.8e-07, 5.000000000000001e-07, 5.2e-07, 5.4e-07, 5.6e-07, 5.800000000000001e-07, 6.000000000000001e-07, 6.2e-07, 6.4e-07, 6.6e-07, 6.800000000000001e-07, 7.000000000000001e-07, 7.2e-07, 7.4e-07, 7.6e-07, 7.8e-07]
#
#Data:
#=====
#Signal(counts)
4
2
4
2
3
4
1
5
3
4
0
4
3
2
2
4
20
78
91
84
83
55
55
57
59
39
33
50
54
46
30
25
38
29
31
30
32
30
24
24
15
29
34
36
28
21
24
19
23
20
21
17
26
25
21
24
24
19
15
15
25
13
13
14
21
8
17
14
19
18
14
19
20
13
14
18
13
13
9
14
10
15
18
15
17
17
10
14
15
16
12
8
19
20
7
17
18
16
16
15
13
12
21
14
5
20
14
13
12
15
17
16
17
13
18
16
13
17
10
12
15
15
8
15
15
10
10
22
18
22
15
16
17
9
19
16
37
179
137
156
120
96
112
101
102
89
78
96
70
74
65
72
70
60
46
42
46
60
44
44
51
35
41
47
34
27
35
24
29
29
29
32
27
33
33
24
20
28
22
34
18
33
29
27
21
25
27
26
20
18
23
26
19
17
20
13
15
18
18
16
31
26
23
26
25
16
16
16
25
18
25
22
27
20
18
19
26
19
18
17
24
19
14
20
17
21
18
23
27
16
14
16
18
22
20
5
19
19
19
31
17
21
21
19
20
25
14
17
20
15
18
13
18
11
26
14
17
9
5
6
14
16
21
26
16
29
23
19
18
16
22
23
22
22
26
11
24
21
26
23
18
19
24
20
18
23
19
21
29
25
15
16
22
12
18
21
10
9
20
16
19
20
21
22
15
15
15
16
25
19
18
11
20
9
8
18
23
19
21
12
22
15
15
23
21
18
17
22
12
17
10
20
21
12
17
12
23
16
20
14
21
19
15
19
17
18
16
16
18
28
19
25
19
16
15
20
18
11
26
25
19
21
13
10
19
19
29
22
21
22
21
26
15
12
23
20
18
13
11
17
35
173
129
126
131
109
114
99
101
78
91
74
68
66
67
58
51
67
54
48
50
43
48
38
46
39
37
39
20
25
33
25
26
15
18
22
14
30
25
26
32
17
12
16
18
15
14
19
22
26
11
20
16
15
23
15
20
19
21
17
19
22
12
17
12
9
21
19
17
14
18
12
17
22
16
13
28
14
16
15
9
18
16
12
16
25
10
17
13
15
18
22
10
14
13
21
13
16
10
8
11
19
14
11
19
15
10
10
16
22
20
15
22
18
9
18
12
13
13
11
38
169
151
123
124
114
121
105
98
107
93
81
95
72
76
64
66
51
62
34
46
47
49
50
47
45
44
38
30
41
33
30
43
25
20
28
29
30
30
22
32
17
30
27
28
22
28
20
14
25
20
30
26
28
27
23
28
20
35
15
16
28
19
27
21
23
23
13
18
15
22
17
17
27
28
20
18
23
26
20
24
16
21
17
24
21
25
24
20
18
16
23
19
16
20
18
21
22
22
17
26
19
24
15
16
15
20
21
21
21
18
21
15
17
22
25
21
21
14
17
15
6
4
3
5
10
3
7
9
32
27
29
25
23
30
18
22
17
13
19
21
27
18
19
19
19
17
19
15
22
22
34
21
19
11
20
21
22
20
23
15
25
17
21
18
15
20
16
24
21
19
23
10
19
19
18
18
15
18
13
19
18
20
24
18
22
24
19
11
25
22
12
24
17
18
13
26
14
18
21
16
15
26
15
13
17
19
13
15
15
20
10
18
21
16
20
14
19
21
12
16
29
17
19
12
16
19
27
16
17
17
19
26
15
21
14
20
16
18
22
11
13
22
15
18
13
21
18
36
178
134
133
105
109
98
97
79
102
83
75
73
71
65
68
54
50
44
48
48
47
44
34
37
35
31
35
33
27
22
35
28
20
33
27
23
23
17
14
32
24
18
18
14
20
23
15
23
15
15
9
21
18
26
17
14
12
22
16
14
13
18
10
21
18
18
20
13
14
16
18
13
19
9
20
15
15
15
22
15
15
13
10
16
16
17
14
17
16
28
14
19
11
23
17
15
12
13
17
18
16
14
13
13
20
10
14
19
14
14
13
16
14
17
18
13
12
15
9
39
165
167
146
136
110
119
105
91
93
79
80
69
81
75
57
49
56
52
43
46
35
46
41
44
37
40
35
42
33
35
22
33
37
36
26
33
23
30
28
24
19
20
25
32
25
24
26
25
26
25
7
24
26
17
22
26
24
20
21
21
17
25
19
22
22
22
26
18
22
28
28
16
23
26
22
17
21
19
16
24
16
21
20
22
19
16
13
17
21
13
18
23
15
20
18
18
15
17
16
19
18
16
23
20
20
18
14
20
22
21
16
29
19
18
24
20
17
19
21
13
10
5
3
2
4
8
5
3
4
3
4
11
17
26
24
20
23
29
30
18
18
28
21
12
13
23
26
22
24
20
15
20
12
23
33
26
22
19
17
22
25
19
20
14
12
24
21
20
17
23
15
16
17
19
22
18
13
17
10
18
22
18
11
15
25
18
23
17
22
13
21
18
21
14
20
17
17
16
16
13
14
16
15
16
28
14
9
17
18
23
15
22
20
22
24
22
18
17
21
16
22
12
21
14
20
23
14
14
15
20
13
14
19
18
18
11
17
25
20
20
18
12
16
13
26
23
18
14
23
17
17
34
145
142
144
150
115
101
114
91
90
99
81
62
75
59
66
56
61
52
37
41
46
34
47
41
38
30
37
35
28
32
32
29
19
29
27
19
20
18
22
22
17
21
16
18
19
18
20
21
12
20
13
18
16
22
15
15
18
16
24
11
19
17
18
12
11
10
13
15
19
12
10
17
17
22
13
10
19
14
20
19
14
17
17
10
9
18
18
16
16
17
14
13
11
13
12
17
16
18
11
12
23
12
13
15
18
13
13
12
23
11
14
15
14
20
15
12
16
13
16
40
172
131
150
134
121
124
121
103
89
89
80
66
71
68
67
57
52
63
70
49
59
46
52
49
46
35
48
39
37
28
33
23
31
35
34
31
34
19
27
21
25
28
23
26
34
23
32
29
17
20
24
14
21
20
18
34
15
22
27
20
21
24
17
11
14
15
14
20
15
20
18
17
21
16
33
20
15
29
24
10
16
22
20
16
23
19
17
21
23
26
20
12
19
21
16
18
25
17
15
28
23
21
15
25
22
23
22
29
15
13
23
19
21
16
21
11
20
16
15
13
5
7
4
5
5
4
5
4
6
6
5
2
1
6
10
7
31
27
29
27
27
18
26
21
35
22
21
19
26
16
22
21
27
19
15
15
17
19
30
20
23
22
20
23
23
16
23
18
26
19
23
20
24
17
21
24
12
20
14
16
15
21
22
23
14
21
20
18
29
19
18
22
21
23
22
23
17
19
20
20
20
20
18
9
22
20
15
13
23
20
14
28
22
18
12
17
22
20
14
22
15
25
21
16
16
20
23
21
17
15
20
19
15
25
19
19
20
16
17
21
17
23
16
25
29
23
12
17
20
22
14
18
21
14
19
33
151
149
166
119
114
113
93
92
90
83
79
76
62
63
69
58
43
48
51
54
32
43
36
27
33
31
26
26
23
22
25
33
21
20
21
22
27
19
25
15
11
11
23
20
20
18
18
21
19
20
25
16
12
18
15
14
15
21
20
13
25
12
15
15
14
17
19
11
15
24
16
17
19
12
11
17
8
9
19
10
11
23
10
22
18
16
12
15
9
12
9
17
13
7
11
14
15
13
19
16
17
22
11
12
15
18
12
10
14
11
7
18
13
12
17
13
11
17
14
30
159
132
141
127
123
108
112
108
120
93
69
78
59
49
81
57
72
63
56
57
59
44
35
40
35
40
47
31
30
46
27
32
34
30
37
22
27
28
25
20
22
26
27
24
22
21
22
25
16
20
26
22
23
21
15
15
24
25
18
17
26
23
22
22
20
24
19
14
14
14
16
17
18
26
24
19
22
20
22
22
21
22
21
20
26
13
20
17
25
25
20
32
15
13
28
16
21
19
20
13
13
18
18
18
21
16
22
18
19
17
26
22
11
20
17
17
26
11
17
23
7
4
7
6
12
4
7
6
4
3
8
2
10
6
1
5
8
5
3
10
37
29
25
30
21
24
16
28
31
24
19
28
13
19
20
21
25
23
25
31
18
16
16
23
18
21
25
20
19
18
22
17
19
19
19
14
22
18
14
28
20
12
17
17
19
23
21
24
16
13
18
21
17
18
12
19
19
13
16
20
22
21
8
17
20
19
12
7
21
24
18
18
14
23
22
19
22
17
18
21
20
25
16
20
23
23
16
25
14
16
18
22
18
14
26
19
16
12
19
24
20
16
17
17
8
23
12
14
24
15
22
22
17
16
17
16
19
18
25
43
161
173
115
127
114
97
118
79
86
85
86
73
72
46
54
45
56
39
46
44
50
37
35
36
42
37
23
36
29
23
26
26
29
26
23
32
23
21
24
34
15
19
25
11
16
19
22
28
27
21
25
13
18
18
15
21
16
7
15
19
16
16
22
15
12
18
7
17
14
9
16
22
19
13
17
16
21
12
21
23
11
14
12
12
20
10
17
13
13
16
17
14
13
10
21
19
11
12
17
20
14
15
14
16
14
16
11
11
13
18
12
15
16
7
11
10
11
9
12
41
193
134
130
130
125
119
107
106
112
89
73
62
70
62
69
59
64
70
51
56
42
43
52
42
37
38
44
40
35
28
26
26
29
15
21
31
27
27
30
24
27
37
35
38
24
19
22
26
17
29
23
21
26
17
24
19
20
18
18
25
15
22
13
17
19
25
18
14
19
25
24
15
29
17
22
23
20
25
22
26
14
23
25
13
17
23
14
18
16
25
19
25
12
19
18
23
28
23
20
19
28
19
21
12
29
22
17
15
24
16
16
24
23
19
20
22
12
21
15
13
6
7
6
4
3
3
5
10
8
7
6
1
4
2
6
1
7
1
8
9
3
3
6
16
53
29
25
32
18
30
32
25
28
24
30
26
20
25
24
28
17
26
16
19
23
20
21
21
18
22
21
17
19
11
20
13
15
13
20
20
23
24
19
20
19
14
23
11
17
16
16
27
27
10
13
17
19
22
19
23
23
21
23
17
21
17
19
17
17
17
19
23
18
22
22
25
18
17
19
18
22
19
16
16
20
18
22
25
13
24
15
25
12
22
24
20
12
14
18
22
20
21
21
21
25
12
11
22
26
14
19
19
23
28
18
21
22
23
16
16
21
12
31
40
157
160
141
132
112
91
102
89
89
83
84
73
74
59
61
75
49
45
32
45
32
33
42
37
33
38
33
34
32
29
31
23
23
23
25
26
22
27
29
15
19
26
19
10
17
19
12
17
15
21
18
21
14
19
23
14
21
17
7
15
9
15
16
20
28
16
12
16
20
12
14
14
8
13
15
14
19
16
17
13
12
13
10
19
24
10
10
19
12
13
12
16
15
19
15
18
13
18
14
17
16
11
17
17
11
13
12
18
12
13
16
16
14
10
14
12
14
13
11
41
144
176
134
132
114
120
102
101
85
68
83
85
77
60
64
80
46
60
58
49
59
52
42
51
43
35
54
39
29
28
30
39
34
30
26
19
21
25
29
27
20
22
34
25
20
28
36
24
27
15
22
25
26
31
19
19
25
18
19
27
20
27
18
17
16
23
12
20
25
14
16
24
16
26
19
25
27
27
19
18
17
19
17
18
17
17
14
18
20
27
21
21
18
16
16
27
21
19
14
22
12
17
21
23
19
14
22
18
22
26
20
19
20
13
19
19
15
19
13
10
6
3
7
4
5
6
3
4
5
4
4
4
5
6
5
2
9
6
5
7
4
5
7
5
9
6
8
3
38
33
30
24
39
44
31
26
28
34
32
28
17
38
18
22
14
26
27
21
25
22
22
22
21
27
18
20
29
30
24
25
21
24
14
15
32
22
22
17
20
20
17
19
23
27
23
12
26
18
17
20
18
21
19
16
25
16
22
11
22
27
23
25
15
12
24
19
23
24
27
19
10
17
26
14
14
9
14
20
14
15
12
13
15
21
27
18
15
10
19
15
17
21
22
17
20
30
22
18
21
13
21
19
23
14
14
21
21
15
12
19
21
21
15
23
18
27
19
36
164
149
142
156
104
116
125
83
89
74
69
78
58
62
50
52
52
43
37
46
26
48
49
45
28
28
32
34
39
27
28
29
22
27
18
16
15
20
26
28
21
14
16
16
24
28
17
19
16
17
23
21
15
20
15
22
16
11
16
15
20
14
12
15
25
18
11
21
22
14
14
14
19
11
12
10
14
21
14
18
15
18
14
13
18
12
9
15
11
19
13
20
14
15
9
15
12
15
13
13
18
19
10
18
10
16
11
12
12
21
10
14
16
10
14
14
14
19
17
33
172
155
140
113
115
101
125
101
98
99
84
75
75
58
68
56
56
67
58
46
52
44
54
49
40
39
36
41
31
39
40
32
36
17
31
28
28
28
29
19
32
21
21
18
18
22
24
24
24
24
15
18
25
24
13
15
24
20
18
24
22
18
16
18
16
21
21
25
23
16
19
18
19
23
22
18
24
24
20
17
16
23
24
19
27
17
27
32
19
18
15
20
12
20
19
25
20
20
19
24
18
13
19
20
16
14
16
12
21
17
14
15
18
27
16
17
22
17
16
11
4
8
5
5
5
4
5
5
6
7
10
8
7
4
4
8
5
9
4
9
10
7
3
5
4
6
5
8
7
5
8
12
34
37
27
40
28
32
34
24
34
31
32
16
23
22
34
26
21
29
23
15
28
27
18
19
17
20
16
20
17
22
20
14
14
22
24
20
21
27
24
15
19
23
14
19
17
10
20
8
22
17
17
28
18
14
15
15
15
16
16
14
23
24
12
19
19
13
18
20
19
31
20
15
12
24
15
21
22
25
21
18
25
16
16
19
15
17
16
19
14
20
28
15
24
12
22
15
16
19
16
13
17
15
20
12
12
17
28
15
22
19
18
13
13
20
20
16
15
15
13
48
173
132
140
97
111
93
114
94
74
87
70
68
66
49
59
52
65
46
57
37
57
43
36
44
41
22
35
41
25
30
18
24
31
17
23
29
22
26
22
21
20
14
27
24
16
10
13
22
13
17
24
19
15
15
20
20
18
7
15
23
15
20
23
22
19
17
22
18
15
14
20
16
13
16
20
22
13
23
18
12
21
21
11
8
9
10
14
13
15
14
18
11
12
9
10
10
9
14
18
7
9
18
19
17
16
26
15
13
13
19
16
14
11
20
23
7
23
13
18
35
158
146
148
137
130
96
92
101
100
90
73
79
79
68
65
54
70
65
57
61
47
53
44
30
35
25
45
39
32
31
35
26
40
42
27
25
30
25
29
27
25
23
28
23
27
28
23
28
28
22
29
29
28
21
20
33
23
19
19
26
10
30
23
20
32
21
23
22
14
21
32
14
16
29
17
14
22
16
16
17
12
21
16
15
16
16
18
20
13
17
25
23
22
15
21
14
24
20
20
19
15
21
20
20
14
17
18
24
21
17
19
23
24
22
25
19
15
24
13
21
11
3
5
5
3
8
4
13
5
8
8
5
3
5
6
0
4
7
2
1
4
8
3
8
8
5
3
3
8
4
8
7
7
7
5
11
50
37
31
41
40
35
21
30
25
35
36
26
34
29
19
27
28
22
19
25
28
25
23
27
17
17
14
28
21
22
19
22
24
15
23
19
21
16
22
22
16
22
18
10
10
23
17
21
9
19
11
16
19
20
18
21
29
24
14
20
17
17
15
13
17
20
17
20
13
19
23
15
21
16
12
25
13
15
27
19
26
21
21
19
23
24
20
26
23
18
10
16
18
18
16
17
29
25
18
20
13
16
15
23
15
25
25
22
21
18
20
21
15
16
24
20
14
22
16
66
177
149
130
107
123
122
100
104
90
82
77
71
58
49
66
60
58
40
44
48
33
34
36
31
37
35
38
28
29
18
32
22
25
21
36
27
29
19
28
25
17
23
20
18
23
19
17
24
16
19
19
21
17
22
16
15
19
15
15
20
15
11
15
19
16
16
19
22
19
17
18
6
11
13
15
13
11
16
11
20
17
20
15
16
23
10
13
13
13
16
13
14
16
14
10
14
12
9
16
15
18
16
14
15
17
16
15
16
23
16
16
13
11
10
17
15
13
11
11
30
168
133
131
138
136
126
115
110
86
93
79
84
73
69
66
60
43
51
49
47
50
42
43
39
41
38
42
36
28
25
32
28
30
31
30
28
22
35
38
27
22
18
29
29
28
25
14
20
25
26
20
13
20
23
31
25
23
20
21
20
21
19
12
20
22
18
24
22
12
18
20
23
13
22
22
16
14
23
23
19
15
21
18
14
18
15
18
22
15
22
18
16
17
19
9
18
23
24
13
14
16
18
17
18
19
9
15
23
15
13
16
17
19
21
12
15
15
15
11
13
4
2
6
5
3
11
4
5
9
7
6
7
3
5
2
8
9
5
12
3
5
6
4
9
5
7
7
6
5
5
8
3
3
4
6
5
6
7
5
17
46
45
39
39
37
25
34
27
36
44
33
23
24
29
25
23
18
35
22
18
23
20
22
29
14
25
32
26
26
15
24
21
32
22
13
17
23
22
17
20
16
18
17
20
11
24
18
16
19
15
21
17
12
15
18
21
19
22
16
19
11
20
26
19
20
18
21
19
13
17
16
21
15
17
12
21
14
15
23
20
27
12
18
17
18
22
17
21
17
22
12
28
18
23
16
28
18
26
23
23
14
16
17
21
20
18
13
13
18
18
10
19
15
15
24
13
21
21
19
44
165
145
107
110
120
86
110
84
90
95
72
67
77
68
46
59
47
69
41
44
37
39
35
40
39
37
37
41
34
25
21
25
25
32
17
21
11
19
17
22
19
24
26
24
26
26
20
20
16
12
20
23
15
17
23
23
12
17
18
12
8
14
15
18
19
15
20
17
13
13
17
10
10
10
12
9
18
10
14
17
16
12
10
9
15
5
12
13
12
18
10
13
15
12
15
16
19
18
20
16
13
17
11
20
11
15
17
16
17
20
12
13
18
3
17
9
8
17
12
43
148
138
142
131
101
97
105
91
80
89
80
77
86
71
73
72
73
59
48
53
51
33
37
55
48
41
32
44
26
30
30
36
21
26
31
35
32
30
33
30
22
22
22
30
20
33
22
16
22
19
19
18
21
24
29
22
27
24
19
23
16
24
17
23
13
20
13
22
29
17
21
24
20
19
25
20
14
19
23
34
15
24
18
21
23
11
24
23
21
18
12
6
17
13
21
22
21
14
18
18
19
15
10
19
21
24
19
22
22
18
17
17
9
22
27
27
11
21
14
15
5
6
6
9
8
8
5
13
6
8
3
7
7
9
9
5
5
10
6
7
8
2
5
4
3
2
8
1
6
5
8
2
9
6
7
7
4
9
5
4
7
4
7
11
44
33
47
36
41
37
19
35
27
32
46
22
25
28
22
30
22
27
31
25
22
25
24
30
18
16
17
25
17
18
24
23
19
20
16
26
24
18
27
12
22
20
21
18
17
17
11
17
16
18
27
13
17
19
17
17
19
19
22
16
13
21
20
18
23
24
14
21
15
16
19
12
15
15
7
15
21
16
21
29
13
18
20
19
21
10
23
17
19
29
17
22
19
24
19
18
23
17
24
20
23
16
26
21
24
17
19
12
15
17
21
19
11
24
20
17
19
20
31
47
163
147
162
105
108
118
108
101
99
91
82
64
69
49
49
55
56
51
49
47
51
39
40
42
34
43
43
21
22
29
35
21
25
23
25
13
27
24
16
19
22
20
23
27
18
17
17
24
17
18
13
16
19
17
12
17
16
21
20
19
19
20
11
17
19
11
9
17
18
8
19
14
16
21
15
15
19
15
18
21
20
9
23
13
9
12
11
14
14
20
14
6
18
17
14
15
13
14
9
16
18
11
12
17
9
16
14
8
15
13
16
7
15
10
13
13
20
16
19
33
173
161
142
135
125
122
104
97
83
89
95
78
65
74
71
62
74
70
49
45
49
44
37
52
39
43
39
44
36
31
29
44
27
31
28
33
27
29
22
39
28
20
23
24
24
26
24
19
19
24
18
27
19
27
17
23
14
20
27
20
23
21
27
19
20
14
20
20
13
29
15
12
20
18
16
29
21
24
22
15
21
27
24
18
17
19
15
24
12
26
20
16
16
13
26
18
23
14
19
17
17
15
7
17
16
21
18
18
18
20
22
26
17
16
18
20
20
16
16
15
5
5
8
2
3
6
4
4
4
3
7
7
7
6
5
9
5
9
6
8
2
2
5
5
4
5
5
9
4
4
6
3
1
3
5
7
3
5
3
9
3
5
8
4
4
2
7
17
51
49
46
51
34
37
28
24
34
36
31
29
33
23
32
23
19
19
20
27
26
18
22
25
20
23
21
22
28
21
22
23
13
20
24
17
20
24
17
16
23
20
17
20
17
17
16
19
20
15
18
21
17
11
17
17
14
20
19
23
15
15
18
19
19
14
14
22
18
18
23
8
19
21
15
17
9
16
27
23
21
24
13
18
15
20
19
22
15
17
23
20
22
22
20
19
19
22
22
22
13
24
24
17
12
18
24
18
18
26
24
11
16
21
24
29
23
21
19
36
179
158
131
117
128
102
107
88
100
97
66
63
60
49
60
54
47
42
43
55
37
33
43
40
43
30
28
26
22
35
19
30
28
22
22
21
24
22
25
23
23
19
22
23
21
19
17
16
22
17
17
23
21
13
20
18
16
21
22
24
13
15
18
14
13
15
9
16
13
13
21
18
10
19
12
20
24
11
16
17
26
18
18
14
7
17
11
12
18
14
13
13
18
10
16
10
20
13
16
14
13
11
22
13
21
13
14
9
14
4
12
9
12
9
17
16
18
12
12
36
174
126
146
148
119
126
111
97
111
93
86
82
81
58
74
69
45
54
44
54
44
57
54
34
34
38
35
32
36
39
32
25
32
29
28
28
22
34
21
22
29
26
26
19
24
23
29
29
8
22
26
25
21
23
22
25
25
23
21
19
16
21
23
15
22
22
22
23
14
15
28
21
16
22
14
26
12
12
22
24
21
18
24
17
18
23
13
16
13
22
21
28
22
22
19
24
18
16
20
15
14
21
18
28
22
17
25
22
21
21
22
16
25
21
19
12
14
19
15
18
8
6
5
5
7
8
4
5
4
7
2
8
5
4
8
8
5
6
2
9
8
7
6
2
8
10
4
4
8
5
6
6
5
6
6
0
4
1
8
8
7
5
6
6
7
2
7
3
7
7
11
22
43
42
36
43
44
47
41
43
26
25
30
29
37
26
30
26
25
36
26
31
26
26
23
33
22
24
28
15
20
28
21
28
13
19
27
14
15
17
20
17
7
16
25
26
18
23
15
19
27
8
23
13
17
17
16
18
22
19
17
16
16
18
11
20
19
22
29
18
18
22
14
25
22
21
13
14
12
25
11
18
22
18
16
23
11
24
20
18
18
17
22
17
18
20
21
22
9
19
11
25
14
14
20
19
24
14
18
17
19
22
15
21
17
14
11
18
16
21
20
46
160
136
121
129
108
109
112
86
110
75
65
74
67
58
59
60
60
55
40
51
42
34
27
39
31
31
25
33
31
33
29
31
19
37
17
27
19
22
29
18
20
20
18
17
12
17
25
23
18
12
12
19
16
16
11
11
17
12
19
11
17
16
19
23
22
14
7
17
15
15
13
12
10
14
13
25
12
20
17
18
12
13
10
14
16
18
11
18
12
21
16
15
16
21
27
11
18
14
17
15
11
16
15
20
13
16
15
16
17
11
5
15
27
14
13
20
14
12
8
43
193
151
125
141
111
98
105
114
79
93
83
73
77
71
74
71
53
54
52
41
41
46
50
41
42
40
42
44
26
28
38
40
33
36
21
25
23
40
23
17
30
19
27
23
34
17
18
22
24
24
19
26
19
18
18
24
19
25
22
22
19
20
20
25
12
23
15
16
23
22
20
21
21
30
18
17
15
25
12
21
21
24
20
22
15
18
18
22
19
23
24
17
15
21
23
15
27
11
15
21
18
18
25
14
16
20
15
19
22
20
20
20
18
20
17
16
18
17
18
13
5
4
3
6
7
5
5
5
7
10
4
5
4
6
5
5
4
3
3
6
1
3
5
5
5
4
6
2
6
10
4
8
3
9
6
9
9
3
8
9
8
4
5
8
6
4
2
5
5
7
4
5
4
9
9
10
61
50
51
22
51
30
30
36
40
27
33
31
28
37
37
26
25
24
32
16
23
26
21
33
21
21
25
22
20
20
20
20
22
21
19
20
20
26
13
18
24
17
20
21
13
11
23
15
25
28
20
18
17
22
22
15
21
17
29
25
16
18
16
20
12
17
16
17
22
22
11
17
17
19
18
15
24
16
13
17
21
19
21
20
15
14
17
18
24
17
21
23
16
27
21
13
22
18
14
11
21
16
19
23
19
21
27
17
22
19
22
18
20
19
17
20
33
25
16
36
182
159
141
116
123
101
91
107
91
71
79
73
78
55
45
56
55
52
48
42
39
35
37
43
23
31
29
25
33
25
27
38
26
27
25
29
18
25
22
23
17
17
19
25
21
7
17
20
19
23
17
20
15
16
17
12
11
18
18
20
18
16
11
14
19
11
13
15
13
26
22
9
14
10
15
9
9
18
17
14
19
17
7
15
8
13
20
11
13
14
18
10
19
20
16
23
10
15
13
23
8
10
7
19
10
14
10
9
15
17
20
21
11
10
10
11
11
15
17
32
172
159
157
120
114
95
102
98
78
75
72
68
65
76
68
59
62
72
47
55
52
47
52
44
46
44
31
29
43
36
25
35
28
30
26
27
31
26
24
33
33
35
34
20
29
25
26
17
19
13
17
21
23
27
26
19
15
17
20
16
16
42
32
15
20
23
18
21
10
30
23
21
20
20
18
16
16
17
15
21
16
23
17
21
12
18
19
13
17
10
13
22
16
17
22
18
21
21
27
17
16
16
16
21
21
28
10
17
26
25
19
20
23
15
29
20
22
14
22
13
8
7
3
7
6
14
3
2
11
7
3
7
5
9
2
3
6
6
10
9
5
3
3
3
4
7
4
3
7
3
1
4
5
6
6
4
5
5
5
5
8
5
5
5
6
5
6
6
8
7
9
9
3
7
5
3
6
7
2
14
40
52
46
47
44
51
36
28
31
37
26
24
31
23
25
27
21
19
34
29
26
18
28
20
27
25
22
23
19
24
17
24
14
21
17
15
19
18
17
22
14
17
24
19
16
19
19
25
17
20
16
21
16
27
21
17
17
20
23
29
16
18
16
23
12
18
16
16
21
14
27
14
26
18
21
23
20
11
17
20
19
23
16
15
15
16
18
24
22
18
18
13
15
18
16
17
17
13
22
15
12
21
18
21
20
20
15
20
14
26
19
17
18
17
13
18
15
17
24
45
168
147
132
119
135
113
96
103
87
80
73
71
64
70
57
54
72
51
51
45
42
26
42
25
32
26
33
33
29
22
35
18
22
25
33
16
19
15
13
26
20
15
28
22
16
15
19
15
19
20
16
13
23
15
20
12
15
14
17
8
23
12
20
17
17
16
16
12
12
15
18
12
10
18
8
10
17
14
16
12
10
17
19
13
17
14
16
14
19
13
17
10
13
16
17
15
16
14
11
22
17
13
9
12
14
17
17
9
12
16
19
17
13
13
22
19
20
19
14
53
164
134
137
126
113
118
90
83
92
90
82
90
74
60
79
50
62
64
43
51
45
52
43
48
40
40
34
31
38
34
27
38
39
37
27
27
27
25
25
26
26
22
23
17
24
23
34
16
22
19
24
21
25
23
16
18
17
14
23
23
20
21
19
15
12
17
23
24
18
21
16
19
19
21
23
17
18
14
22
16
17
21
19
22
29
21
25
16
14
21
18
21
21
19
22
26
13
10
20
19
16
15
18
18
17
23
20
18
15
17
25
21
21
27
22
19
9
16
20
15
5
8
7
4
9
4
4
6
7
4
7
2
5
3
2
8
6
5
3
3
4
3
5
6
4
4
7
9
8
6
6
7
3
3
8
2
4
6
3
13
4
5
5
5
5
5
8
5
5
8
7
5
4
9
7
6
7
3
7
5
6
6
10
11
57
48
42
46
40
42
35
33
41
35
32
37
29
26
31
29
30
28
43
23
27
16
19
25
25
21
20
28
22
26
19
19
15
27
25
22
30
17
22
22
17
20
23
31
19
23
22
22
23
17
17
12
15
17
23
9
19
17
20
19
33
14
19
22
22
19
17
17
18
17
20
18
21
18
20
22
21
23
30
17
17
23
20
19
11
13
16
20
22
14
17
7
16
15
27
19
21
16
16
24
18
17
24
20
16
16
16
22
14
11
20
15
26
25
16
14
14
13
19
47
191
138
141
116
129
115
102
103
99
91
80
76
58
68
47
71
52
44
48
46
39
44
33
29
34
39
33
24
38
32
24
24
32
30
28
26
24
20
20
26
19
16
18
19
28
22
18
14
21
15
16
14
12
11
9
22
15
10
19
10
20
17
15
16
20
16
12
13
21
15
17
8
15
18
19
20
13
15
16
13
18
16
15
19
11
13
16
16
15
11
12
20
11
12
13
14
21
10
13
5
16
5
16
11
13
11
8
17
15
11
10
10
16
11
10
14
12
16
10
38
179
138
148
135
115
98
89
96
94
77
74
86
79
71
58
60
62
60
54
52
49
50
40
37
40
32
34
38
40
39
31
34
33
26
32
29
35
24
34
31
31
24
26
25
34
20
26
16
22
21
25
20
16
18
28
17
21
22
18
13
17
18
16
14
18
19
21
12
18
19
18
22
17
21
21
21
21
21
19
22
16
19
24
12
19
16
21
13
7
28
17
18
20
16
25
17
22
17
16
18
20
18
14
17
23
16
15
18
25
12
26
24
14
22
22
13
12
19
29
12
11
5
7
2
7
6
6
5
5
5
7
6
5
2
8
3
7
5
3
9
9
7
4
4
7
6
6
6
6
6
6
7
6
7
6
2
4
8
15
9
6
5
4
5
11
7
4
5
3
8
5
11
6
9
4
9
2
10
5
4
3
8
6
7
8
5
5
9
44
54
74
45
47
41
47
37
33
32
45
36
35
36
35
36
24
29
27
27
21
23
27
21
29
35
23
22
22
24
19
25
20
17
21
24
20
14
15
23
17
28
22
25
23
18
20
19
13
24
15
20
21
18
15
28
20
17
10
19
19
24
17
11
21
15
17
13
13
29
17
14
14
17
22
13
22
21
22
13
16
16
10
15
15
16
20
21
17
14
19
19
25
16
21
18
15
25
19
31
17
20
10
17
18
25
19
16
13
23
12
16
21
26
12
22
20
18
17
40
144
157
131
129
105
125
103
95
83
60
70
74
78
66
59
50
39
50
45
45
47
39
44
39
41
29
34
25
27
22
26
25
15
29
22
23
19
26
28
32
14
22
19
23
18
17
21
9
18
8
18
16
17
13
16
10
12
21
19
15
18
18
19
18
17
15
14
12
10
9
18
14
15
23
24
23
19
16
12
17
20
17
19
19
9
16
10
16
10
14
18
7
16
16
12
10
12
12
9
12
10
16
15
12
8
21
18
21
17
14
10
16
15
17
16
13
12
11
12
38
153
156
144
118
109
114
115
110
72
100
94
82
67
63
72
71
63
55
48
46
49
59
45
55
57
42
35
39
37
32
23
40
32
29
23
38
29
21
31
28
22
33
26
28
27
33
24
18
19
18
23
14
19
19
17
22
16
23
17
26
23
13
24
15
16
25
21
16
20
19
23
25
20
20
15
18
24
19
15
17
20
13
14
27
20
16
21
11
21
20
14
22
22
16
23
19
14
13
9
22
14
17
14
15
27
20
9
21
17
13
26
20
16
21
19
20
16
21
15
23
4
1
2
2
6
2
6
6
2
7
3
6
4
5
3
8
6
8
5
7
10
4
7
10
5
3
7
4
11
4
6
8
6
4
5
6
5
4
9
5
6
3
6
4
7
8
2
11
9
4
6
6
4
4
3
3
4
4
3
10
8
9
3
7
7
10
6
4
5
7
8
11
44
53
48
44
54
44
38
41
48
25
38
28
38
29
26
24
26
30
31
21
22
29
35
21
25
18
34
18
22
21
22
25
16
18
36
23
14
22
17
22
15
18
20
27
14
19
16
24
24
22
26
20
22
23
23
21
22
18
15
19
24
20
19
16
16
18
22
19
24
32
15
14
23
11
13
15
19
16
23
24
21
13
19
23
13
15
12
27
20
9
20
24
20
18
20
19
10
24
19
17
26
20
20
19
12
18
10
20
21
22
21
18
9
18
22
17
15
17
14
50
186
145
144
122
124
109
96
100
91
65
71
68
74
63
44
60
56
55
41
42
40
32
25
30
49
37
30
34
26
36
21
32
32
31
33
15
28
25
19
21
20
19
19
27
15
20
15
21
24
18
15
14
15
18
12
21
18
17
22
14
19
15
17
12
16
16
16
11
17
14
16
13
13
19
22
18
11
18
13
26
15
28
23
12
17
17
17
16
16
14
11
12
14
7
15
11
11
13
5
22
13
12
20
10
12
19
18
12
11
19
17
21
11
9
15
11
15
18
14
34
176
180
136
133
129
106
115
100
91
95
84
79
71
60
72
66
60
81
56
52
49
40
46
54
54
34
29
37
34
20
31
33
18
30
26
33
22
27
25
31
27
29
27
28
33
24
24
24
24
14
18
20
21
22
17
22
17
25
29
19
20
22
13
12
18
23
25
16
16
20
15
21
26
12
26
25
14
24
28
20
26
20
21
18
23
20
14
17
22
23
19
27
15
9
16
17
20
20
20
9
16
17
22
15
13
18
23
15
17
19
20
22
17
16
17
20
19
18
26
9
8
6
3
4
3
7
2
4
5
6
6
0
4
8
3
8
4
4
6
4
9
10
2
4
3
7
3
8
8
6
5
8
3
9
4
5
3
6
5
5
10
4
6
14
8
7
6
6
5
3
3
7
0
2
9
6
7
9
10
1
10
3
1
2
7
6
5
7
5
4
10
6
9
7
8
21
57
55
48
35
50
37
31
49
43
36
31
29
33
40
38
30
30
36
14
26
26
25
24
20
28
23
23
30
18
18
20
25
21
29
21
15
22
23
17
17
23
18
25
18
22
21
19
17
18
24
13
16
19
23
19
18
18
20
15
15
23
18
16
14
20
22
20
13
20
20
18
22
18
20
19
18
27
19
19
20
25
24
22
21
16
16
17
15
21
18
15
26
14
14
15
11
11
26
16
15
18
12
21
29
16
17
8
22
18
17
19
17
13
17
11
13
8
8
15
33
197
138
134
121
108
100
91
86
99
89
79
73
52
62
63
39
56
43
48
52
45
48
41
23
32
37
41
32
24
22
24
29
24
26
34
22
29
25
17
24
20
25
18
12
17
16
17
16
14
9
17
13
32
15
18
14
12
18
16
26
18
18
10
18
15
19
16
18
15
15
13
12
25
16
13
16
17
16
15
14
10
16
15
12
12
10
11
14
13
11
18
14
14
11
10
17
17
21
9
19
14
6
24
14
13
8
12
11
8
18
21
11
12
16
16
13
17
15
12
31
182
151
136
133
131
109
89
82
84
82
85
74
75
61
64
69
49
61
49
49
48
51
41
44
38
45
45
39
40
38
30
22
27
38
31
27
18
29
24
22
34
19
29
20
26
20
25
24
23
28
29
17
15
17
15
19
24
21
18
19
22
27
26
21
26
20
16
27
26
25
18
24
17
17
18
21
20
24
18
16
16
18
20
10
21
23
22
16
25
19
26
20
14
21
14
28
21
20
13
23
10
18
14
21
16
23
19
19
21
21
20
19
16
21
29
17
22
26
19
15
11
5
4
7
7
4
7
0
6
2
6
5
4
5
11
7
6
4
10
4
7
10
5
4
9
7
4
6
9
5
5
8
5
3
4
8
8
6
5
5
7
11
5
9
4
8
4
1
5
3
8
9
10
13
11
5
7
7
9
8
7
6
3
10
5
7
2
8
3
5
4
7
9
2
5
10
6
1
7
15
55
52
33
49
57
40
46
38
34
38
40
30
37
34
26
26
29
31
32
28
16
26
25
20
25
33
25
15
17
22
14
19
15
26
21
27
19
17
19
23
17
22
24
19
19
22
24
17
18
15
20
21
21
17
16
13
19
13
23
18
13
20
15
19
19
18
18
20
18
25
14
28
15
30
23
20
22
19
27
26
15
26
21
18
19
26
23
19
16
21
14
22
12
23
17
15
18
27
21
16
22
22
18
15
18
18
27
25
15
23
19
19
28
13
16
14
20
13
18
40
163
159
135
106
119
112
73
96
98
81
65
77
66
71
51
55
67
59
34
42
46
45
41
45
31
32
35
27
35
27
24
27
35
23
21
24
20
17
23
26
21
26
24
21
25
10
24
17
21
13
26
15
22
16
16
19
16
16
17
19
16
17
16
11
23
17
15
16
12
13
16
17
15
15
15
18
16
19
19
16
21
16
16
10
13
17
19
22
11
17
15
20
17
13
17
11
13
16
14
14
22
7
15
21
16
15
11
15
12
12
13
18
19
13
13
17
9
20
9
45
166
166
135
121
123
125
107
106
91
94
88
80
63
81
75
67
74
68
59
45
58
32
45
34
51
45
38
42
29
40
30
38
31
38
30
40
31
26
21
30
22
27
27
24
24
19
25
24
24
27
26
22
18
14
21
26
24
27
21
10
19
30
23
24
23
27
17
21
25
17
18
19
16
29
31
23
18
25
14
23
14
20
20
23
15
16
16
19
21
23
12
17
19
21
24
13
18
22
15
17
14
19
24
13
24
17
12
13
15
23
25
16
19
15
11
14
17
13
23
17
6
2
6
5
2
8
6
6
5
7
4
5
7
3
8
3
6
8
5
9
7
7
9
5
0
6
2
5
9
4
7
6
5
8
6
4
1
6
8
3
5
5
5
3
8
6
6
4
2
12
3
10
9
5
5
3
6
6
10
2
2
5
0
7
8
11
3
5
3
2
3
5
6
9
3
8
8
8
3
8
13
6
7
10
61
47
53
47
42
27
49
44
41
43
36
40
27
44
40
40
28
32
39
22
25
25
23
23
26
22
27
18
30
26
29
26
22
20
25
17
26
24
15
24
15
20
24
19
17
9
16
17
17
20
17
22
13
15
27
21
24
21
15
20
15
15
17
20
22
20
20
20
20
29
18
15
21
19
24
13
11
17
18
16
22
12
22
30
21
30
19
15
17
20
17
19
19
24
17
20
25
14
17
15
21
16
15
15
16
25
16
24
23
20
15
26
22
9
15
16
18
25
11
41
173
145
163
103
97
106
92
103
94
61
83
64
58
67
66
45
59
62
50
47
44
43
35
41
28
41
31
39
23
37
24
27
39
29
19
20
18
24
29
25
19
20
21
15
21
23
16
16
20
19
17
13
18
16
15
14
15
13
18
13
13
17
14
19
17
12
27
20
13
11
16
24
13
13
14
17
14
12
12
10
9
11
16
18
15
11
15
16
6
18
14
12
13
19
11
13
13
19
12
20
18
9
12
19
6
15
16
19
10
20
15
10
20
11
8
12
11
12
14
44
167
156
149
138
121
123
112
88
97
84
76
75
63
68
78
62
55
45
56
61
50
63
48
43
41
29
42
38
26
30
34
34
40
32
26
26
29
26
22
27
16
30
24
22
25
26
19
19
21
26
16
30
19
18
18
19
17
24
17
20
23
27
20
22
21
24
22
21
23
26
28
19
30
22
19
18
23
17
23
16
25
14
22
18
11
14
27
15
17
25
16
31
20
19
25
18
21
24
24
10
14
22
20
15
21
13
15
17
17
17
19
17
17
22
17
16
16
18
23
15
8
4
2
9
4
8
3
5
6
7
7
5
5
6
5
7
6
5
5
5
6
7
8
5
11
4
3
2
5
6
7
10
6
3
6
4
5
5
10
5
3
5
4
10
8
11
4
8
7
6
4
6
8
5
5
9
8
8
8
8
4
10
11
3
5
8
7
7
7
6
12
10
3
8
3
9
11
4
4
6
12
9
11
6
6
7
9
20
62
46
56
53
53
35
40
43
42
42
32
42
31
28
25
38
37
38
31
26
31
21
23
22
20
28
24
20
29
22
26
19
25
21
23
24
18
20
21
25
21
21
24
22
15
12
19
17
26
25
20
22
22
14
25
12
15
21
12
15
18
18
14
14
24
24
28
17
18
20
14
16
14
17
21
17
18
19
21
12
27
15
23
18
18
16
20
21
26
24
13
17
25
15
13
15
20
17
24
13
20
25
24
21
16
20
26
23
24
16
13
15
20
16
19
14
14
23
21
39
153
160
124
120
132
117
99
107
88
88
100
77
64
72
61
49
40
41
54
40
41
44
37
39
35
34
35
34
13
32
32
35
27
22
32
20
26
19
14
24
12
27
18
25
18
18
20
7
25
15
15
15
20
13
19
16
20
13
17
19
26
15
17
15
13
15
17
12
8
12
12
20
21
13
19
12
25
15
11
17
15
19
11
17
12
14
15
18
15
13
14
9
22
23
17
23
15
14
14
14
18
15
13
9
11
16
18
17
17
10
20
13
11
12
18
19
12
11
10
35
181
145
128
112
103
117
111
107
107
96
92
73
72
86
83
58
65
52
47
55
43
50
35
53
36
41
40
35
33
44
28
27
34
34
23
31
41
28
22
33
32
23
35
18
17
22
17
22
22
23
31
23
17
19
19
26
22
16
15
26
14
25
14
24
19
17
18
22
23
27
15
19
22
24
19
19
22
23
21
13
18
20
20
25
19
23
19
20
19
29
20
24
16
29
22
14
28
22
13
19
17
18
12
18
15
14
17
18
21
20
15
15
23
25
13
25
16
25
19
15
6
9
5
3
4
2
5
6
8
2
3
8
7
4
3
1
5
4
4
3
5
4
4
4
6
3
5
5
10
8
11
9
6
4
7
8
8
7
9
6
8
3
11
6
3
8
3
5
7
7
5
7
5
7
5
4
6
7
4
9
6
7
9
9
6
6
5
3
3
5
5
2
6
8
11
7
6
4
3
6
7
11
1
5
7
7
5
7
3
3
3
23
64
48
61
48
49
48
51
41
29
38
39
32
37
31
27
33
27
22
37
34
28
17
30
28
20
23
20
31
24
25
14
22
20
23
17
18
25
17
19
20
17
22
12
27
20
19
13
20
20
17
10
21
18
24
28
15
23
22
17
16
21
21
19
18
16
16
12
12
20
15
23
25
16
15
16
18
20
20
21
20
29
24
18
17
16
21
16
19
26
15
28
23
19
15
23
17
24
11
22
13
19
15
29
22
16
22
13
18
25
17
21
20
15
18
21
15
18
17
14
40
156
157
134
135
100
98
113
83
73
72
53
58
68
77
56
55
60
52
50
50
53
45
46
28
40
45
26
29
28
40
23
27
17
20
22
22
21
29
22
22
15
23
17
15
22
21
24
21
22
22
20
14
8
17
12
19
11
11
12
10
17
11
13
23
20
14
18
17
14
12
15
14
15
20
14
20
8
16
13
14
10
12
18
12
21
12
16
14
18
13
11
22
13
10
12
8
14
10
16
15
9
10
11
14
16
15
16
11
18
12
15
22
11
10
8
17
14
13
11
36
156
136
158
123
117
98
100
106
97
88
86
79
75
71
67
56
55
61
60
43
59
43
38
46
45
40
34
30
29
39
28
21
33
34
29
31
29
23
23
25
26
27
22
15
23
27
23
15
22
31
18
23
27
20
15
21
25
24
26
17
28
25
25
16
23
24
20
19
12
23
25
25
24
18
20
20
26
17
25
15
23
28
16
18
18
21
13
18
20
12
25
24
16
15
31
22
14
14
12
22
23
15
10
14
20
16
19
16
18
20
15
19
14
17
13
21
18
17
14
22
7
5
12
3
7
2
4
4
5
5
4
7
10
4
2
4
8
9
6
5
8
5
3
6
8
4
13
6
2
5
6
4
4
5
3
6
12
5
4
10
3
9
5
3
8
9
7
8
6
4
6
7
5
2
9
7
4
4
7
3
6
4
6
11
9
2
10
6
6
8
7
10
3
4
11
8
9
2
5
4
4
1
6
3
3
1
5
6
7
7
5
6
2
7
5
6
70
74
61
58
48
52
45
46
29
37
34
27
30
22
25
26
25
27
36
20
23
22
22
30
23
29
25
19
16
20
26
26
16
22
23
24
18
20
23
19
21
20
17
26
19
23
17
22
12
17
19
21
20
20
22
22
26
20
21
16
14
23
17
19
19
13
19
25
19
16
14
19
25
20
26
15
14
25
27
18
19
23
15
15
15
15
22
24
17
14
21
20
29
21
22
22
21
24
13
21
20
13
25
17
15
19
18
15
15
23
11
14
19
13
12
18
19
17
21
34
181
138
127
143
108
104
85
111
80
78
95
77
64
65
55
55
64
42
40
47
53
40
39
34
39
31
26
22
16
37
32
25
31
20
22
18
33
21
24
23
26
21
24
19
19
19
15
16
24
15
10
19
11
14
17
8
15
10
15
12
23
15
15
13
15
12
12
9
11
15
19
17
24
11
15
15
19
15
14
19
18
12
11
12
18
14
20
16
17
16
13
16
13
14
15
12
10
12
18
19
20
14
15
11
14
12
15
22
15
18
12
20
13
15
17
12
13
9
22
33
169
141
146
134
138
122
103
104
92
78
84
78
67
81
68
61
58
50
47
45
49
53
47
45
43
35
35
25
37
32
31
34
29
29
31
28
41
23
28
23
33
14
25
19
27
18
25
27
33
20
17
26
22
21
25
15
26
20
22
20
16
16
23
13
25
15
20
20
25
24
20
25
15
22
19
14
11
22
7
17
21
24
20
18
21
17
27
21
15
15
23
18
24
16
17
20
21
29
19
13
26
18
20
14
13
22
19
15
19
24
19
15
18
14
13
15
21
22
13
17
6
5
4
7
5
5
9
9
7
5
7
2
9
4
6
3
3
6
8
8
9
6
5
8
7
5
7
12
1
5
0
9
4
5
7
11
8
7
2
7
5
4
5
9
10
2
10
9
11
3
6
7
5
7
7
6
7
8
3
7
4
5
7
7
6
1
7
9
4
5
7
5
2
6
9
7
3
3
6
7
5
7
9
4
4
8
2
9
7
10
9
7
7
8
8
5
4
8
7
11
77
55
55
46
39
41
54
41
46
37
34
38
25
27
18
30
28
39
35
40
40
24
20
23
28
25
28
28
24
18
14
20
25
28
23
22
29
25
13
10
29
31
21
23
21
18
14
24
14
27
21
19
25
22
17
20
20
19
21
17
16
9
21
12
16
19
18
21
17
23
15
15
29
21
13
18
16
15
18
19
13
15
16
20
24
19
19
15
18
15
17
14
19
18
22
13
12
23
15
25
20
19
18
11
25
23
18
23
8
14
23
19
19
15
21
30
13
18
21
53
154
122
129
135
104
113
96
81
91
78
69
69
50
67
70
51
44
44
52
54
46
50
35
31
26
26
26
28
31
25
32
28
25
24
30
31
19
19
20
29
16
21
17
14
24
18
15
15
13
22
14
12
19
22
20
12
20
18
15
20
22
16
20
15
13
14
13
14
16
17
19
17
17
13
19
15
16
11
14
26
10
16
9
14
16
10
11
12
10
17
12
15
18
12
13
18
15
17
13
17
14
19
16
12
20
17
11
11
14
16
21
18
9
12
20
12
13
9
15
34
164
147
130
144
119
108
92
97
101
100
98
80
65
70
60
63
66
54
65
50
61
43
37
48
47
37
36
29
26
29
44
33
33
23
19
29
26
28
28
21
19
25
22
23
21
32
24
18
17
17
15
18
12
29
14
17
20
14
23
13
21
23
16
15
18
17
20
25
26
19
22
34
19
26
18
12
18
19
10
27
19
16
18
18
17
16
16
20
20
15
20
18
22
18
18
15
17
26
18
18
15
16
14
21
14
20
25
18
9
25
21
20
13
14
17
15
22
16
25
16
6
4
4
5
3
7
9
7
9
8
5
7
6
5
6
6
8
2
7
5
7
9
6
8
7
6
4
6
7
7
1
9
7
6
4
7
7
5
7
6
7
4
4
3
6
6
2
11
6
6
11
4
5
6
11
6
6
4
8
10
3
4
7
4
2
5
5
6
9
2
3
6
5
4
4
7
5
7
7
3
1
9
10
5
4
6
5
4
9
8
10
7
7
8
6
4
8
2
6
5
4
6
4
21
68
65
82
57
48
46
50
45
50
51
39
43
27
25
24
29
33
20
34
30
31
34
32
22
28
30
19
26
30
21
18
17
20
19
17
21
12
18
17
18
19
17
30
9
21
15
21
22
15
23
26
19
22
22
11
16
14
14
23
7
20
10
21
27
15
17
15
22
19
28
21
11
16
23
21
28
19
15
16
23
19
24
24
12
23
24
13
18
15
15
30
25
24
15
17
28
16
18
26
22
25
14
11
10
24
20
11
17
20
26
25
23
18
14
12
10
13
20
18
49
132
151
122
137
124
92
95
83
81
77
78
72
68
63
46
48
53
55
60
41
37
27
35
36
40
31
39
31
38
27
15
24
28
39
27
18
21
31
20
25
14
17
24
28
16
20
13
15
15
11
13
16
17
15
20
19
13
14
14
11
16
20
12
18
13
19
14
19
18
15
17
9
21
17
16
18
12
15
20
13
12
14
11
16
12
15
11
18
16
6
14
7
19
15
23
14
14
16
15
15
13
17
7
12
22
13
18
16
11
17
12
13
20
17
10
17
26
11
20
48
167
141
146
122
119
112
115
101
84
90
82
75
78
59
68
44
50
53
51
50
39
59
38
38
46
46
38
32
33
30
26
30
20
34
27
33
29
36
27
25
21
32
26
20
20
25
34
17
24
19
20
12
15
27
22
18
23
18
17
15
21
20
15
24
19
17
20
20
19
19
17
25
20
16
23
21
29
23
18
29
21
12
11
18
26
26
18
14
20
19
18
15
17
21
21
18
13
20
14
25
17
14
15
19
18
27
22
21
17
22
18
17
27
16
18
25
13
16
25
23
9
7
2
7
6
9
7
3
3
3
3
5
6
6
3
9
2
4
5
2
3
5
6
10
2
3
7
5
6
11
7
5
3
8
4
6
7
7
5
5
7
11
3
5
6
5
5
1
5
7
8
6
5
9
7
12
5
3
4
7
5
4
8
5
7
8
4
6
7
6
7
8
12
7
7
10
4
4
6
6
6
2
4
6
5
5
10
7
7
3
4
7
9
3
6
8
8
3
5
4
6
4
5
3
6
10
10
6
55
57
49
52
43
35
46
35
39
27
39
35
29
39
24
40
39
17
34
27
20
24
23
26
24
26
28
24
28
16
22
20
22
29
27
20
25
17
21
17
23
25
23
17
22
22
17
12
18
18
11
18
28
20
25
17
24
20
12
19
19
18
21
16
19
19
16
17
25
17
15
18
19
18
19
19
11
30
11
18
25
25
19
23
17
13
17
19
17
15
14
13
20
17
21
14
22
17
14
13
17
19
20
11
22
26
21
16
20
16
23
22
15
21
30
26
19
22
18
43
167
133
133
117
148
101
89
101
100
76
71
80
67
53
64
64
46
55
60
43
49
51
36
39
38
33
16
37
19
24
22
31
23
31
23
20
23
25
20
16
13
23
15
19
22
25
16
19
15
23
15
15
14
18
19
17
13
17
13
16
14
19
14
14
16
17
10
10
23
15
14
19
14
17
11
18
15
12
11
24
10
22
22
11
18
13
12
8
16
7
12
14
12
15
22
20
9
28
17
21
10
19
8
9
13
10
19
16
17
14
14
16
16
11
9
19
8
11
14
35
155
150
147
119
116
121
112
111
80
102
75
58
71
64
56
48
63
45
45
52
54
58
48
39
47
37
36
43
41
39
21
35
23
38
20
28
22
25
28
19
35
26
16
17
18
29
25
23
20
25
23
16
25
20
21
17
20
16
19
25
34
25
26
22
20
21
19
19
14
22
24
26
21
15
10
18
21
22
22
20
18
12
18
24
24
17
22
9
22
23
20
23
20
18
16
18
17
17
27
14
15
15
20
15
22
12
16
20
24
16
21
11
16
20
14
21
26
17
21
15
7
4
7
6
8
6
5
10
7
8
4
2
5
6
5
6
5
7
10
9
6
8
6
9
7
6
4
8
1
7
4
6
6
7
5
6
7
14
4
6
6
10
4
3
5
8
7
7
12
3
8
7
9
7
6
8
4
7
7
8
3
6
8
8
8
8
5
3
5
4
8
3
5
5
3
8
6
7
10
8
3
7
6
8
2
5
8
1
5
4
5
7
3
7
9
2
10
8
9
5
6
5
6
2
5
7
6
4
5
7
2
16
61
72
46
47
40
45
54
38
55
37
40
38
30
37
28
32
33
43
29
33
19
23
14
26
23
25
23
31
14
17
17
19
17
31
21
16
18
23
16
15
20
18
35
22
18
28
22
13
19
18
15
17
23
20
21
15
19
20
18
16
17
24
18
25
17
21
17
11
20
18
29
23
13
16
17
18
18
18
24
19
19
22
17
17
19
19
13
12
22
19
18
22
20
15
18
14
20
27
22
12
19
10
30
24
17
19
12
10
19
24
15
16
14
23
17
18
25
16
28
33
177
152
138
133
114
125
103
86
81
91
76
72
62
73
46
53
54
53
38
40
45
39
43
41
34
28
33
38
30
27
21
29
23
30
23
19
29
24
24
16
20
25
24
23
24
17
15
16
14
29
16
19
14
18
21
20
17
12
14
17
11
11
16
11
10
26
20
12
21
9
10
23
22
11
13
12
15
18
23
15
5
11
22
24
14
17
9
18
10
11
21
16
15
19
14
15
20
14
19
13
9
18
12
13
18
13
20
11
16
20
12
13
14
13
17
9
18
12
12
43
167
135
137
126
120
114
100
102
106
92
92
65
63
67
54
76
51
44
45
63
50
60
48
43
43
36
39
32
27
27
35
30
34
13
35
32
25
27
21
30
34
17
32
24
29
26
30
18
19
19
17
15
23
16
16
21
28
31
21
22
24
13
28
23
19
14
25
21
19
16
17
19
25
15
18
25
25
16
14
30
24
11
20
17
15
13
15
13
28
20
21
14
13
19
18
13
21
18
21
19
20
19
26
13
17
20
22
22
22
17
25
21
20
25
19
18
16
10
6
17
5
9
4
6
6
5
2
4
7
4
5
5
4
5
4
5
5
8
7
9
5
2
9
4
7
4
8
9
4
4
5
5
5
7
1
3
4
10
12
10
4
1
7
6
5
7
3
4
8
5
9
5
5
10
5
7
1
6
3
6
1
4
7
6
6
4
9
1
6
7
7
4
3
9
4
7
3
8
8
5
4
5
7
7
11
9
4
5
3
8
7
7
7
8
4
5
11
8
11
8
6
7
11
1
4
5
7
8
10
11
6
6
9
10
10
16
71
57
54
59
57
41
49
42
33
33
34
38
31
33
24
29
33
30
31
27
26
24
21
36
29
22
26
27
27
27
21
22
24
16
18
16
21
19
25
18
27
23
16
26
19
14
17
18
17
18
20
18
13
14
18
15
23
17
12
19
21
22
18
16
20
20
12
23
23
21
22
15
17
19
23
21
17
14
21
23
20
13
25
16
11
23
18
17
16
17
18
17
13
15
17
14
17
15
14
13
21
27
23
21
16
22
22
14
27
15
16
23
15
20
23
24
27
16
21
34
161
157
144
135
135
91
106
85
93
83
69
73
64
75
68
59
58
46
51
46
49
48
32
41
31
37
28
31
29
35
39
30
30
27
26
32
25
21
17
26
8
18
24
17
16
17
13
14
26
13
16
10
18
18
14
20
17
11
22
12
13
12
19
24
18
18
14
20
19
16
22
21
17
13
11
16
11
12
13
13
21
17
17
12
11
18
18
11
16
11
14
15
12
18
15
16
19
17
13
17
9
24
11
16
15
17
20
17
16
2
12
17
13
16
16
10
13
13
12
33
150
148
142
131
126
110
112
87
94
89
85
91
73
72
68
68
54
48
52
49
47
37
43
38
35
44
38
41
42
25
23
24
33
32
30
26
29
28
31
22
23
21
22
30
37
17
23
17
24
16
16
20
23
26
23
17
21
22
21
19
29
20
23
21
14
26
34
13
14
12
23
26
20
14
23
17
14
20
19
14
22
19
10
23
14
24
14
26
14
20
19
16
12
13
13
15
18
27
27
16
22
23
20
14
18
16
21
17
15
15
28
22
13
15
17
20
21
17
20
22
8
6
5
3
5
5
3
8
5
3
7
7
3
11
3
13
5
8
6
8
6
6
7
8
5
5
5
7
3
6
2
11
5
6
9
4
8
5
7
9
5
8
4
4
6
5
9
10
6
7
11
2
10
4
4
6
4
8
4
6
5
8
2
5
4
5
9
4
9
7
8
1
6
4
5
10
6
6
4
9
8
5
10
5
6
7
6
11
7
3
6
8
13
7
9
2
8
9
5
8
9
7
9
8
7
5
5
11
8
8
6
8
6
8
4
9
3
9
4
14
64
63
58
65
41
58
56
51
47
33
32
39
37
34
37
41
33
40
28
23
22
20
32
25
26
26
28
20
25
31
22
25
25
29
27
16
21
21
15
20
16
22
17
19
16
17
19
23
17
19
20
24
24
15
15
23
25
14
24
20
24
17
16
17
17
12
24
14
22
24
13
21
18
18
23
16
20
21
25
20
20
17
15
19
12
21
15
15
17
18
17
12
12
15
10
20
10
15
20
17
14
9
16
19
17
14
14
17
23
16
13
21
17
21
6
21
21
15
19
46
145
154
133
119
124
106
90
75
84
79
84
82
62
75
63
58
56
52
38
47
41
37
36
51
29
36
41
36
32
26
27
24
33
34
16
21
14
14
26
16
22
24
25
20
24
14
15
16
21
14
19
11
10
16
18
22
13
15
18
14
18
21
21
18
17
13
14
15
15
17
20
18
15
18
13
20
12
18
19
13
9
17
16
19
13
18
8
13
17
10
17
11
17
15
14
21
15
16
17
14
18
10
19
11
14
14
19
19
12
10
18
10
10
10
10
16
11
10
11
29
154
166
145
130
111
121
103
117
81
88
84
84
92
69
58
52
64
49
55
63
52
42
41
48
33
41
36
34
41
39
35
30
29
26
22
29
25
27
37
23
25
14
27
21
27
20
20
23
17
26
27
19
20
24
22
22
26
17
21
18
14
20
28
21
12
13
19
16
23
23
15
15
16
33
28
28
20
19
27
27
22
15
22
20
24
23
24
22
20
22
16
19
15
12
13
15
22
23
24
21
17
21
23
21
18
29
18
16
17
17
20
12
16
22
12
14
21
18
13
21
6
4
2
8
6
9
2
4
3
7
5
5
7
2
7
7
4
3
7
4
9
4
5
7
4
8
8
3
6
7
11
9
9
5
5
3
8
6
11
5
10
4
6
5
5
5
7
10
6
6
4
6
3
3
4
3
3
9
12
12
2
11
7
2
7
9
5
5
4
10
5
6
7
4
5
6
5
4
6
9
3
5
3
11
5
7
7
6
4
5
4
6
4
7
4
3
4
6
4
6
5
5
5
3
7
4
8
4
4
3
4
6
10
4
8
7
9
3
4
10
7
6
7
11
66
73
52
48
55
37
47
46
55
47
37
33
49
30
43
39
34
25
32
28
36
25
22
22
18
25
19
30
23
25
31
18
17
20
23
19
21
19
23
25
21
25
24
23
18
19
16
14
16
25
19
19
26
22
20
17
13
13
27
21
13
20
14
17
21
20
17
14
17
19
22
20
13
31
31
25
20
14
18
26
18
20
18
15
21
17
25
21
21
17
24
16
19
17
26
19
19
14
17
19
23
11
19
22
10
18
21
17
15
21
13
17
16
20
13
18
24
20
18
40
182
147
135
131
116
120
106
102
86
89
84
71
58
55
57
57
48
47
55
47
38
44
28
37
42
29
24
29
31
39
13
27
26
20
23
21
24
21
21
17
29
24
17
13
21
19
19
22
14
27
19
12
18
16
15
13
11
13
16
16
18
22
8
13
14
20
10
14
15
13
19
13
13
13
14
17
11
6
14
13
14
13
11
12
16
18
15
17
9
13
11
15
16
27
11
18
15
12
16
13
13
11
18
12
13
16
12
24
15
10
10
13
17
11
16
11
11
9
14
27
160
134
128
126
113
94
126
90
96
71
79
89
84
63
72
63
54
56
56
49
51
55
48
45
41
38
38
23
55
30
27
32
34
33
21
24
29
29
26
26
25
21
33
27
32
32
25
21
36
20
19
15
20
18
23
21
9
22
19
20
24
27
22
26
22
19
20
16
20
13
23
16
17
26
26
8
19
26
18
14
19
19
26
13
14
19
23
21
22
17
20
17
20
12
20
10
16
18
25
25
23
20
17
20
14
18
18
23
17
19
17
11
16
17
15
23
22
23
19
20
7
7
7
5
8
2
7
7
4
4
4
5
4
9
7
8
6
5
3
5
5
10
4
6
4
6
5
2
8
5
4
6
4
6
5
9
5
7
7
4
8
1
7
3
7
7
6
3
8
5
4
5
3
4
5
9
4
7
11
6
4
8
7
1
8
5
5
5
11
3
2
8
9
9
3
6
2
9
5
7
5
8
9
8
7
7
3
5
7
10
4
3
6
3
8
3
2
8
3
6
4
9
7
6
2
5
9
4
7
4
7
7
4
5
9
5
4
4
10
7
10
6
2
6
4
8
5
23
69
55
59
62
51
49
53
58
51
44
39
53
36
25
35
32
28
27
30
39
25
26
22
23
31
27
21
38
25
25
20
17
16
23
22
19
15
18
22
14
26
14
19
20
19
23
21
20
13
27
17
24
15
19
13
13
19
28
23
24
15
20
11
12
16
19
12
18
32
22
23
19
17
27
19
22
20
21
19
20
21
23
27
31
15
15
15
19
17
15
18
21
16
22
20
17
18
21
17
19
23
20
17
23
23
24
19
20
15
19
18
11
16
20
20
24
18
23
24
30
177
153
152
125
105
132
104
92
83
85
62
83
68
65
56
75
55
41
44
31
46
51
34
27
38
23
43
27
21
20
24
26
17
30
25
27
14
22
23
27
24
15
20
18
23
16
20
16
18
13
13
17
14
15
19
14
11
16
15
18
12
14
14
11
18
10
15
22
15
14
20
12
12
19
15
20
18
15
15
17
13
13
13
7
17
17
16
17
14
17
19
18
16
17
14
10
11
15
11
15
15
15
16
13
18
12
12
9
17
13
13
16
14
10
16
14
12
8
17
43
162
137
119
136
121
111
87
95
72
92
73
86
73
70
71
53
60
62
46
44
49
48
54
58
40
49
44
39
39
45
39
39
30
26
35
32
30
31
24
31
18
26
22
27
16
21
27
26
24
28
19
22
20
26
26
24
17
14
14
24
17
24
12
21
24
25
16
24
19
17
12
28
19
26
13
14
13
25
23
14
25
15
15
25
19
17
27
16
12
27
14
20
23
22
17
23
20
21
25
16
22
16
14
10
19
20
20
21
10
18
26
18
9
27
13
15
16
14
21
21
8
6
5
3
5
5
5
6
2
2
12
6
4
4
3
4
6
7
10
6
8
3
4
6
8
12
6
5
10
4
7
7
9
5
5
5
9
6
5
5
5
9
9
5
4
3
7
6
5
3
3
7
13
8
8
5
3
7
5
3
3
4
2
5
6
9
5
6
4
7
2
4
4
12
5
7
4
3
9
7
4
4
2
7
4
6
7
7
7
5
4
2
6
6
9
5
8
3
7
4
4
8
8
5
6
4
6
10
4
8
1
5
7
3
6
2
11
2
9
3
6
6
6
5
7
8
2
10
8
8
8
23
63
50
46
66
57
46
41
46
39
47
50
51
33
41
28
32
29
33
25
28
28
26
22
29
29
27
28
21
31
21
29
22
32
20
15
26
25
23
22
16
19
24
32
18
20
12
21
23
17
28
26
26
20
25
18
22
25
21
23
26
19
19
17
17
18
18
15
24
21
21
18
27
30
24
16
17
17
11
22
11
14
24
13
18
23
15
18
20
20
18
16
14
20
23
22
25
13
8
12
13
15
19
16
16
17
23
16
17
14
13
23
12
14
24
32
19
16
21
27
36
149
155
149
127
124
125
104
93
88
78
81
59
63
58
84
59
58
37
45
37
62
47
51
33
35
32
42
30
34
34
33
33
28
26
26
17
29
25
19
19
17
30
19
21
24
20
24
26
23
29
20
21
10
18
17
16
13
11
17
12
14
15
21
17
13
11
16
13
18
13
14
14
12
18
19
15
16
24
13
16
26
15
12
19
9
18
12
12
8
12
18
8
20
11
15
17
18
17
18
15
10
11
12
15
19
17
13
12
12
12
12
13
10
17
19
13
11
14
13
35
154
166
146
118
109
121
107
100
86
88
101
58
70
79
61
59
79
62
49
62
36
51
53
47
50
35
35
29
37
31
31
34
28
20
34
28
25
16
26
17
32
23
16
34
26
21
23
26
26
31
22
14
21
33
27
25
25
16
10
17
16
16
15
18
21
19
24
22
22
15
23
21
20
15
16
16
19
27
21
24
22
22
18
11
25
17
16
18
19
14
19
17
18
19
19
15
22
20
26
21
18
15
22
10
18
20
22
26
22
27
25
19
14
15
19
10
21
14
14
15
6
8
3
10
6
2
5
4
12
6
10
3
5
6
5
7
8
6
11
8
7
4
7
2
3
2
5
2
1
6
5
4
9
4
5
4
5
3
6
3
8
1
3
7
7
5
8
8
9
3
8
4
8
10
6
6
8
5
2
4
7
4
6
10
4
5
5
6
4
7
10
2
5
7
6
4
2
12
10
4
7
7
7
4
7
3
6
5
5
9
10
7
7
5
5
5
9
3
9
6
8
7
8
7
4
10
9
2
10
4
5
10
8
9
8
4
6
5
12
8
2
6
6
8
3
2
4
9
6
7
3
8
9
10
4
10
61
74
68
66
62
39
59
43
34
34
48
42
34
34
25
41
37
18
26
15
32
27
24
22
20
19
19
23
25
16
27
16
19
24
25
19
19
18
22
25
31
24
28
23
19
23
13
24
13
21
25
20
20
20
26
17
15
22
25
22
12
19
11
18
21
14
29
17
21
14
13
18
18
11
15
23
22
17
23
14
13
17
22
24
18
15
16
22
25
19
18
9
29
26
12
23
14
17
21
15
17
15
12
20
20
15
27
11
15
19
20
24
17
21
15
26
17
22
20
44
174
118
125
124
128
113
110
96
66
71
75
70
73
67
43
41
66
56
49
48
46
39
39
36
43
43
36
30
30
24
29
17
26
24
26
25
30
26
21
18
21
24
16
22
23
14
14
15
13
14
15
18
21
7
19
16
18
15
20
18
15
17
21
15
9
18
12
15
16
15
12
21
16
19
15
14
15
19
10
16
7
11
10
15
23
13
11
20
15
8
13
13
15
13
13
12
23
12
16
18
17
14
9
14
8
14
13
13
19
20
15
9
17
15
16
16
9
13
14
33
170
124
134
116
115
107
91
93
91
68
80
91
75
53
61
66
74
50
53
40
60
58
43
33
43
43
32
40
38
25
39
32
49
27
30
19
36
32
29
18
29
29
19
20
34
9
22
29
10
23
21
27
16
27
16
24
16
18
23
17
11
14
20
21
16
24
13
24
18
19
18
23
20
16
26
24
11
21
27
23
14
16
27
22
20
17
20
14
20
12
20
22
21
17
27
19
16
11
19
22
20
17
21
16
16
12
24
18
16
15
29
16
16
22
12
15
24
24
13
15
12
6
4
9
7
3
3
6
7
8
5
6
5
7
9
6
7
2
7
2
4
5
5
8
9
4
6
8
7
7
6
2
5
5
4
8
5
3
8
9
3
8
8
2
4
4
7
9
9
3
2
8
6
5
7
4
4
5
7
6
4
6
2
12
8
7
4
6
7
8
3
8
6
8
10
9
7
8
7
3
8
8
7
2
9
2
9
10
4
5
5
4
6
13
5
5
6
13
8
6
5
3
7
6
2
6
5
2
6
8
5
4
5
10
5
8
8
8
7
6
4
10
4
8
6
8
8
9
5
3
4
3
8
5
4
3
11
8
2
16
92
66
57
51
55
49
52
59
48
40
38
36
45
41
32
34
42
27
32
29
29
27
27
21
17
32
21
28
38
23
25
19
20
27
37
20
11
30
28
27
20
16
26
25
14
13
24
28
17
14
23
18
25
25
16
9
18
16
12
16
12
18
22
18
8
28
23
14
21
17
30
25
24
20
14
22
17
18
23
12
17
14
17
15
18
19
20
24
17
20
25
24
18
18
21
27
19
28
20
29
21
11
10
18
16
21
21
14
23
30
24
23
22
12
20
21
21
17
23
51
164
137
134
135
106
89
115
91
96
84
84
80
70
78
69
54
50
39
58
36
38
44
40
31
36
29
20
37
39
34
27
22
20
25
26
26
34
18
19
21
21
15
20
8
14
13
18
10
16
13
19
18
22
17
12
15
17
21
12
21
11
12
16
12
14
13
16
12
16
20
18
17
10
21
14
14
12
15
17
11
20
3
9
11
13
9
19
15
11
16
18
16
26
15
16
11
23
17
12
18
14
14
11
13
18
9
14
13
15
19
13
14
16
13
12
15
18
16
10
33
164
133
145
140
109
120
103
99
79
88
80
83
79
78
81
66
62
54
70
52
42
41
36
36
41
44
32
28
39
34
27
33
36
26
31
20
26
25
32
31
28
21
22
27
26
25
35
31
18
21
23
18
25
22
21
25
17
21
25
27
18
19
24
18
19
22
18
15
20
25
28
26
30
25
13
22
20
23
16
18
17
28
16
22
16
18
27
13
22
24
14
18
25
16
18
15
15
20
21
20
17
14
16
13
20
23
21
12
17
24
19
26
13
16
22
23
21
17
24
19
9
5
5
6
4
4
3
5
7
5
4
6
10
4
1
6
4
8
9
4
4
6
13
4
3
6
7
3
8
8
9
9
5
9
3
4
3
9
6
4
6
3
9
8
4
6
4
0
7
5
2
11
4
7
6
4
4
9
5
7
5
6
9
5
8
5
4
6
5
4
5
5
6
2
5
8
9
3
4
11
3
12
3
7
11
10
9
10
5
6
3
6
6
4
10
8
7
9
6
6
6
3
6
7
9
4
9
2
3
3
6
5
6
8
8
1
8
7
5
5
7
7
5
6
8
13
7
7
5
8
4
9
5
5
6
12
9
5
10
9
6
5
4
19
70
65
79
54
57
41
59
48
36
58
39
38
39
39
34
28
36
32
28
23
22
34
33
32
35
25
23
24
27
25
22
16
26
16
20
25
20
22
25
20
23
29
16
15
18
19
20
21
17
18
9
15
18
20
14
19
22
19
14
15
20
20
16
19
23
20
16
19
22
21
20
26
19
24
24
21
14
18
33
20
24
23
19
18
21
18
21
14
15
20
16
17
22
19
25
17
21
24
16
12
14
14
26
16
20
8
21
21
12
16
10
13
27
21
16
16
14
10
16
44
179
124
156
120
109
106
88
102
76
67
78
71
57
61
58
64
45
41
42
40
32
56
37
43
44
31
21
34
33
23
34
29
25
23
21
21
22
29
17
22
18
24
14
15
13
19
20
17
11
16
19
16
19
27
11
12
23
11
15
20
28
15
23
15
13
14
18
18
15
18
16
16
19
18
10
5
15
12
17
13
11
21
11
10
14
13
11
11
15
15
14
10
14
10
9
18
9
13
15
13
15
10
8
13
13
15
14
10
13
14
7
8
16
12
19
16
16
13
13
35
170
166
144
137
131
98
78
91
97
101
82
93
65
78
71
58
52
56
50
46
40
56
50
44
33
49
34
41
49
37
33
34
24
22
29
31
40
26
25
21
23
19
21
24
19
27
23
24
18
27
21
16
23
29
21
30
28
23
21
18
15
18
19
19
11
18
20
19
14
22
22
27
21
23
23
21
20
16
32
28
20
17
15
21
15
16
19
24
17
23
14
18
14
25
24
21
12
16
24
22
15
15
22
18
15
23
10
18
30
11
23
22
17
17
15
16
22
17
23
15
8
5
8
4
7
8
2
5
9
3
7
4
5
3
5
5
5
9
0
4
7
8
7
6
8
6
8
4
2
9
12
4
6
8
7
7
8
6
7
4
5
5
8
7
4
6
5
6
8
11
2
7
4
7
8
7
6
8
6
6
2
5
5
8
4
9
3
8
4
2
3
7
6
2
10
6
7
2
9
5
5
9
9
1
6
2
4
5
5
2
7
7
4
8
2
7
6
5
7
5
2
6
6
2
8
9
6
10
5
8
6
4
8
6
7
4
7
3
10
6
5
6
3
6
5
2
4
6
7
6
5
11
5
12
5
8
6
13
6
8
9
9
1
5
6
5
7
11
79
78
54
56
50
54
52
56
34
42
42
46
27
47
41
30
31
36
33
27
29
39
31
20
26
18
27
15
24
22
25
16
21
16
24
25
24
22
28
20
22
18
19
15
26
21
22
19
25
18
24
24
21
18
13
26
16
15
11
22
12
15
21
20
17
16
16
17
17
17
27
21
17
16
23
16
26
17
27
23
7
20
15
18
19
12
17
15
12
19
15
16
29
22
21
19
18
27
19
23
26
13
19
19
22
11
11
13
12
18
22
15
16
17
8
25
14
17
18
47
158
170
127
137
110
100
110
107
91
105
80
76
72
74
64
54
44
50
46
47
40
30
37
35
38
42
37
29
25
29
22
25
21
24
20
37
19
23
19
19
12
19
12
15
20
15
16
30
14
20
27
22
17
9
23
19
7
10
16
13
15
18
15
12
16
12
13
10
17
12
16
18
17
14
13
18
18
22
14
11
21
17
20
15
12
10
21
10
15
9
14
13
16
8
21
12
12
12
16
13
10
19
13
13
10
10
10
14
13
18
15
11
10
12
15
11
15
16
15
36
163
146
125
127
132
122
94
96
96
94
88
81
77
75
67
65
57
59
47
52
51
54
49
44
46
52
41
44
29
32
26
35
36
32
35
30
30
37
28
23
18
30
24
39
22
26
17
23
19
25
23
21
22
19
24
25
18
27
15
18
20
15
19
13
14
28
21
16
14
16
14
19
21
22
25
19
8
10
26
19
27
22
19
23
20
18
19
23
21
22
16
15
13
19
27
12
16
18
19
19
18
18
12
16
15
18
20
20
21
14
15
20
18
22
19
22
11
20
19
24
9
12
8
5
3
2
4
4
11
4
8
8
7
5
11
7
6
8
6
8
9
4
3
6
7
11
6
5
7
6
5
3
8
9
10
9
3
7
4
5
10
7
5
6
10
9
4
9
8
6
10
7
7
5
8
9
7
5
4
2
5
9
5
6
7
4
6
8
8
3
4
5
9
7
2
4
11
3
5
6
6
6
8
3
7
6
6
2
6
6
5
5
6
6
6
8
6
5
8
6
5
8
5
7
2
8
4
5
4
8
5
10
6
6
9
9
7
15
5
4
11
5
6
8
9
6
5
11
5
5
7
4
7
8
3
11
7
3
10
7
6
7
2
5
5
7
6
6
4
5
8
11
70
53
52
73
48
59
51
50
47
43
29
38
34
33
36
47
40
20
35
27
44
39
33
24
26
25
23
21
21
26
20
28
23
26
33
26
27
25
20
30
18
12
23
22
17
23
23
21
19
21
17
24
16
18
16
21
23
21
12
19
24
19
27
18
25
20
16
17
27
15
21
17
16
23
15
12
16
20
18
17
16
28
24
16
15
16
15
18
23
22
16
14
16
22
14
22
12
17
22
16
29
23
14
14
16
24
15
16
17
21
17
18
20
12
23
20
16
23
17
34
160
164
149
117
115
116
97
86
92
91
75
66
72
60
72
48
43
46
45
58
42
35
40
31
28
24
28
32
38
33
33
27
19
22
19
22
35
22
23
13
24
19
20
23
21
22
18
15
9
17
12
17
16
15
15
18
16
12
25
19
16
14
12
7
10
13
23
20
15
14
20
16
11
22
8
19
14
11
12
9
12
17
19
18
14
16
16
11
15
16
16
13
18
5
13
7
17
12
11
11
14
11
16
18
13
10
19
13
16
12
10
20
21
18
13
16
9
10
21
38
162
158
133
112
130
127
112
98
101
79
88
78
81
71
57
79
61
49
59
50
43
45
43
35
43
34
40
31
36
38
24
44
23
35
30
30
27
24
36
25
30
36
15
29
31
23
28
26
18
19
25
23
24
24
20
20
23
21
19
16
20
21
18
15
22
25
14
9
13
11
26
15
19
20
22
24
14
21
15
19
21
13
19
17
18
15
25
21
14
28
19
19
19
14
17
14
27
18
17
23
20
23
14
19
16
16
14
22
18
19
22
17
14
11
24
12
24
12
14
23
9
3
7
4
5
7
6
3
4
5
8
5
5
8
6
5
4
6
5
5
7
6
9
9
3
7
3
6
4
6
6
5
11
6
6
4
8
9
8
7
4
7
7
6
3
8
7
9
2
8
6
4
5
4
8
5
7
3
4
7
7
3
8
9
4
8
4
10
3
5
8
9
6
7
6
7
6
9
7
6
2
4
2
3
4
1
7
6
10
6
5
5
4
7
4
10
10
8
8
8
5
6
5
4
4
5
5
4
4
5
13
2
8
10
3
11
7
7
4
13
6
7
7
7
6
5
6
7
6
6
3
5
5
10
4
7
7
2
9
8
7
5
6
5
9
4
6
7
8
6
10
8
8
9
3
19
83
58
72
52
64
57
48
52
45
37
47
53
37
37
30
31
33
31
35
31
29
29
32
36
26
28
31
27
14
33
29
18
24
31
19
21
20
27
14
25
20
22
18
14
20
19
9
26
19
17
15
27
22
21
14
30
27
18
16
17
13
17
16
9
11
18
24
24
21
14
15
24
24
15
21
29
23
27
19
10
9
21
24
12
21
21
23
27
17
22
20
14
15
18
16
11
23
15
15
13
17
12
20
7
20
24
20
20
17
22
11
24
14
24
18
20
17
15
21
16
6
5
5
13
4
4
11
4
11
6
3
8
3
3
2
4
5
4
6
1
4
9
4
7
6
5
2
10
3
4
1
4
1
5
4
4
2
4
6
6
6
4
4
4
2
4
3
5
7
6
2
4
5
5
4
4
3
6
2
2
3
3
4
4
5
5
9
4
2
7
6
3
2
4
3
3
8
2
7
6
5
5
6
5
3
4
6
0
4
6
9
3
8
4
5
5
3
7
1
6
8
7
5
2
2
6
3
1
3
2
1
3
6
4
4
2
1
3
5
2
2
4
1
3
2
5
5
5
1
2
3
4
9
1
6
3
3
2
8
3
5
9
7
2
5
3
8
3
2
4
1
3
5
5
3
2
4
1
6
5
5
6
5
6
9
8
7
3
5
5
6
6
7
0
4
3
1
4
3
2
4
6
3
2
4
2
1
5
