#Saved Data from the class pulsed_measurement_logic on 18.11.2022 at 16h47m42s.
#
#Parameters:
#===========
#
#bin width (s): 5.0000000000000001e-09
#record length (s): 8.6824999999999996e-05
#gated counting: False
#Number of laser pulses: 156
#alternating: False
#Controlled variable: [2e-08, 4e-08, 6.000000000000001e-08, 8e-08, 1e-07, 1.2e-07, 1.4e-07, 1.6e-07, 1.8e-07, 2e-07, 2.1999999999999998e-07, 2.4000000000000003e-07, 2.6000000000000005e-07, 2.8e-07, 3.0000000000000004e-07, 3.2e-07, 3.4000000000000003e-07, 3.6000000000000005e-07, 3.8e-07, 4.0000000000000003e-07, 4.2e-07, 4.4e-07, 4.6000000000000004e-07, 4.8e-07, 5.000000000000001e-07, 5.2e-07, 5.4e-07, 5.6e-07, 5.800000000000001e-07, 6.000000000000001e-07, 6.2e-07, 6.4e-07, 6.6e-07, 6.800000000000001e-07, 7.000000000000001e-07, 7.2e-07, 7.4e-07, 7.6e-07, 7.8e-07]
#
#Data:
#=====
#Signal(counts)
2
2
4
1
4
2
5
3
6
1
3
0
3
1
5
7
12
40
32
37
40
40
34
32
21
29
33
29
27
29
23
24
16
15
20
23
17
16
17
18
12
19
18
17
18
7
14
16
12
16
10
11
12
11
8
7
8
9
14
8
4
12
6
8
5
4
14
12
6
11
11
15
13
8
13
7
10
9
5
11
6
8
5
9
8
11
11
12
12
10
9
13
7
10
15
7
7
7
7
5
13
6
7
2
10
14
10
7
11
7
10
7
12
8
10
8
4
7
14
13
8
4
9
14
12
6
5
9
13
8
9
8
11
12
9
14
24
105
87
65
76
65
73
53
66
50
45
50
54
37
35
37
27
32
30
27
32
34
28
30
31
28
29
34
21
14
18
26
20
20
25
16
26
15
14
18
18
18
14
18
23
15
17
14
20
15
12
14
11
10
17
13
11
13
19
13
10
14
16
8
16
13
11
17
9
13
6
18
21
16
15
11
8
14
10
10
15
15
18
18
13
12
17
13
10
22
8
10
8
15
16
17
10
9
11
18
10
7
6
18
10
13
15
15
19
16
18
10
12
15
14
13
7
18
18
16
14
3
7
4
8
24
13
6
14
18
11
14
17
13
18
21
18
16
16
20
17
10
13
12
8
13
18
18
11
12
10
17
17
18
10
15
16
16
16
15
16
14
11
16
7
16
15
16
12
9
17
12
11
19
15
19
19
18
11
14
13
13
15
14
22
22
16
11
10
15
18
21
12
15
6
12
15
18
14
10
11
11
17
11
14
13
17
14
15
11
18
15
12
10
15
13
17
12
12
20
17
13
11
15
14
15
12
12
15
14
20
14
20
20
15
12
17
10
17
13
10
17
12
8
23
82
80
74
73
43
58
50
58
51
45
47
37
38
34
41
30
29
29
40
25
19
29
20
26
24
23
20
27
14
21
15
25
10
14
19
11
14
16
16
16
15
12
17
8
8
9
12
9
9
9
9
11
8
11
14
12
5
9
12
17
15
11
8
13
15
11
7
10
10
7
4
16
11
7
11
5
7
13
11
12
9
9
12
9
7
7
8
6
8
14
9
10
11
11
3
10
10
11
11
7
8
13
13
11
11
11
6
14
8
14
7
13
8
6
8
16
10
12
10
25
111
68
88
64
66
61
62
50
59
45
52
58
42
40
31
44
38
31
23
37
30
33
25
24
31
24
29
28
18
23
15
15
21
16
15
24
20
19
13
9
12
21
17
8
15
11
15
20
13
13
17
18
22
13
20
13
20
17
14
10
15
21
16
22
16
13
12
14
8
11
25
15
16
17
21
8
17
10
20
15
24
13
15
8
17
15
17
10
9
13
21
14
6
9
15
9
19
8
20
18
12
15
19
14
14
13
16
8
6
9
20
7
7
19
14
17
14
17
14
16
7
4
3
4
2
4
5
5
26
19
18
14
15
16
20
15
18
20
17
11
16
15
14
21
22
14
17
17
15
11
18
17
10
14
10
11
16
16
19
13
12
15
8
11
11
24
21
13
12
13
8
14
13
17
10
17
18
10
18
12
8
14
17
9
13
17
16
9
18
18
14
19
11
10
18
10
18
18
10
16
16
11
9
15
11
15
17
11
9
11
11
16
14
18
17
13
13
17
18
14
19
13
17
9
15
9
12
17
12
9
9
10
11
14
13
23
11
12
8
14
19
15
12
8
11
9
12
36
89
71
74
67
55
48
62
60
41
46
51
42
43
32
29
29
38
38
37
33
26
30
21
24
17
10
17
15
20
25
18
16
17
16
12
14
10
10
15
13
15
12
5
15
8
9
11
13
9
6
12
11
15
12
7
5
10
12
8
6
9
5
14
9
9
14
5
7
10
5
7
10
13
5
9
6
8
10
10
11
18
15
11
9
15
8
10
5
12
13
11
14
7
13
5
6
11
10
7
12
10
10
5
8
10
4
8
5
9
14
6
6
11
7
15
15
7
8
6
19
88
80
56
77
62
53
66
61
51
52
52
55
44
37
37
36
36
35
42
36
28
21
29
26
27
28
21
26
21
25
21
14
30
19
16
27
16
19
22
17
16
18
15
18
13
16
12
19
18
11
18
16
32
18
27
15
11
15
21
17
17
15
11
19
11
10
4
19
18
17
9
8
13
10
20
13
16
15
10
9
15
9
11
14
13
17
19
16
11
10
14
21
9
11
20
11
9
13
9
14
16
15
14
13
14
8
10
12
16
17
15
16
12
12
16
17
18
17
13
15
5
5
9
3
2
7
6
9
4
5
7
5
21
21
24
18
18
20
11
20
17
15
16
14
11
14
18
17
18
20
20
18
15
11
18
11
20
14
16
11
17
17
15
11
11
18
21
7
13
12
11
11
13
6
29
12
18
14
16
16
10
8
9
14
13
12
18
24
13
16
14
12
21
17
16
13
22
15
15
15
12
13
17
15
17
7
18
11
17
14
15
14
13
18
18
15
19
10
8
15
18
16
18
12
17
12
8
15
13
13
11
13
15
13
10
9
16
21
11
14
10
10
22
16
10
14
15
13
11
13
9
32
101
83
66
56
54
70
52
51
42
39
37
37
43
41
25
37
39
30
24
23
18
21
22
18
19
24
24
23
20
13
19
15
17
21
14
19
19
9
13
7
9
13
7
13
7
9
15
7
3
11
10
14
13
10
13
8
8
10
13
10
8
9
11
11
4
11
8
15
6
6
9
8
9
16
9
6
13
9
8
9
8
8
17
5
4
11
13
10
12
11
10
5
11
12
11
10
10
14
15
10
8
12
10
7
14
9
10
7
10
8
11
15
15
10
3
9
4
12
9
30
93
81
90
59
79
77
71
45
60
57
40
53
53
35
39
35
35
38
39
44
31
24
27
27
29
32
25
21
27
21
15
20
24
13
16
17
21
26
14
16
12
13
25
8
17
27
14
15
17
16
10
11
14
23
16
24
8
13
19
14
20
12
15
22
10
16
15
14
12
12
13
16
15
15
13
16
19
13
11
18
17
16
15
27
18
7
15
20
14
8
16
25
18
11
21
13
9
15
19
14
19
17
16
17
12
13
13
15
16
16
9
18
25
16
14
11
16
16
13
16
10
8
4
8
8
4
3
6
7
2
6
3
8
5
9
5
22
19
25
26
17
28
17
17
21
19
17
26
20
16
15
12
14
13
17
16
14
14
16
13
17
16
16
14
10
13
17
13
10
14
12
9
14
13
16
7
17
7
14
12
13
14
12
17
20
15
15
19
11
16
11
22
10
19
11
14
12
17
20
10
18
10
21
18
21
21
15
13
9
16
17
12
10
10
17
19
9
14
17
16
9
14
10
15
14
18
14
13
13
12
9
12
9
21
15
19
14
15
13
13
19
10
13
15
15
11
19
6
22
19
15
26
15
16
16
40
93
75
60
63
53
66
57
56
45
50
50
40
41
42
35
29
19
39
28
22
27
16
27
27
26
24
20
21
12
16
15
19
16
13
10
24
7
10
14
13
9
10
11
14
10
16
10
10
16
14
8
9
10
9
8
10
10
11
12
10
5
10
8
6
11
12
5
14
14
4
9
12
10
6
5
9
7
10
7
11
5
5
12
7
14
9
18
6
10
12
9
5
5
15
12
15
12
10
4
11
16
13
11
9
10
15
9
6
7
14
10
12
7
10
8
5
5
9
9
22
93
73
63
72
75
66
67
64
44
40
48
44
49
42
33
40
47
37
28
28
23
29
40
31
22
26
22
24
22
17
30
21
12
26
16
20
21
20
14
13
17
19
17
17
25
15
14
11
19
12
21
10
7
15
17
17
11
14
20
13
16
7
14
12
14
16
13
12
18
14
11
9
19
14
18
14
9
18
13
16
17
11
15
9
7
18
20
13
17
14
20
16
13
12
10
14
16
8
16
10
16
14
12
17
14
18
21
19
10
10
18
15
13
22
6
16
8
17
16
17
7
6
4
3
5
3
7
4
3
4
6
5
12
9
4
7
5
6
6
8
32
30
18
26
16
19
19
15
22
13
14
16
15
15
25
18
14
16
15
18
14
16
15
19
12
15
12
13
22
10
17
16
18
13
17
16
16
17
18
10
5
10
9
16
9
5
17
15
16
13
15
11
12
12
21
17
17
12
14
16
20
9
10
13
9
14
26
11
18
14
12
17
15
13
5
13
15
9
12
14
11
17
13
15
11
11
13
23
12
10
9
14
16
8
18
17
16
15
16
14
17
12
19
16
12
11
11
16
9
13
18
15
11
15
14
14
16
13
17
27
101
63
80
53
69
67
66
59
61
35
48
44
43
32
31
33
29
26
27
28
25
26
18
20
27
13
14
24
16
20
22
12
19
14
17
22
11
8
17
12
16
4
21
15
12
4
11
12
9
17
9
14
16
8
9
7
9
10
13
12
11
5
9
7
10
13
11
13
8
7
11
11
12
8
12
7
8
8
9
12
13
14
15
10
7
11
13
11
15
11
13
6
10
12
5
8
10
13
10
5
9
10
12
7
8
7
10
7
9
7
6
5
6
12
11
8
6
7
8
25
87
97
72
89
73
77
54
59
51
54
47
42
45
30
37
36
22
43
23
31
19
33
35
23
22
25
28
24
25
25
18
22
19
19
18
16
22
16
17
26
23
15
20
9
18
6
17
20
18
16
22
11
13
15
20
24
15
25
9
18
19
22
23
13
19
10
13
20
13
12
15
6
10
11
10
23
15
15
13
9
12
11
9
8
14
15
14
19
11
19
11
8
22
11
12
4
13
14
9
9
17
14
7
17
8
12
19
13
7
15
17
12
13
6
18
15
8
9
14
17
6
5
4
8
4
5
8
1
2
7
3
8
6
8
8
4
4
4
7
13
6
1
1
17
25
24
20
31
17
18
19
17
23
21
19
22
19
21
15
13
19
11
17
8
13
14
13
13
19
22
19
18
17
15
19
13
15
14
16
16
13
13
14
16
14
19
12
23
15
11
11
15
12
16
13
18
17
17
16
13
8
11
13
14
12
12
13
12
12
13
15
14
11
16
10
9
15
12
19
10
18
18
14
16
19
16
13
7
12
14
14
13
16
14
13
9
8
14
16
13
19
15
12
10
21
9
13
8
10
11
7
8
11
5
14
15
14
12
15
10
17
14
12
36
90
80
64
71
66
68
55
48
58
46
54
49
34
40
26
35
29
30
23
34
21
14
22
20
17
21
14
19
20
24
21
17
23
13
19
12
6
14
17
9
16
11
13
16
12
7
6
15
8
10
12
14
10
10
10
7
5
6
17
14
8
8
10
8
11
9
9
4
9
10
11
9
6
13
12
6
8
9
7
13
13
11
8
8
11
17
9
10
7
13
11
8
12
18
13
10
8
11
14
10
11
9
11
9
9
6
11
6
9
5
10
4
15
6
11
8
9
8
5
21
108
82
72
74
72
63
54
58
45
58
44
32
49
56
33
37
37
23
34
20
31
20
35
31
22
24
29
20
24
19
14
19
23
31
19
14
15
20
12
10
21
23
14
14
15
16
15
23
13
18
12
16
14
15
7
15
18
13
11
10
15
10
10
17
14
14
16
21
14
12
23
19
15
14
18
14
12
18
15
13
12
15
17
18
10
21
11
16
14
19
13
13
11
17
15
10
13
16
10
10
17
19
9
11
17
14
15
18
15
14
17
17
19
20
9
17
16
14
13
11
5
5
6
7
10
3
7
3
7
7
10
5
10
7
10
8
10
13
3
7
2
8
1
4
6
5
5
8
33
25
33
21
23
18
16
18
13
15
17
25
13
19
24
19
18
11
18
16
18
23
14
15
16
19
12
15
13
14
16
11
12
9
12
21
17
17
15
12
10
15
16
12
7
16
14
16
7
10
13
10
7
9
22
12
13
13
9
13
10
12
14
11
12
20
14
9
17
17
18
15
14
13
8
12
16
10
9
18
15
14
20
17
13
11
12
17
17
13
9
16
15
19
13
12
10
20
14
8
12
20
17
15
12
14
8
7
10
12
13
14
13
21
15
7
13
10
13
29
90
75
71
60
51
54
58
52
35
43
37
37
43
38
35
29
27
20
32
27
25
21
25
12
20
17
21
19
13
25
21
20
13
11
15
7
19
11
22
6
7
16
8
20
8
12
13
13
10
9
4
9
11
8
11
12
4
11
12
8
10
9
14
12
11
6
9
7
9
16
14
16
11
10
10
7
5
11
5
8
12
15
8
13
11
6
8
8
16
13
11
10
8
9
9
14
5
7
5
6
6
14
10
19
7
5
9
9
7
7
13
17
10
4
10
5
8
6
14
28
92
87
79
63
81
81
48
70
40
56
42
39
44
49
41
40
34
35
28
30
34
22
23
23
17
26
21
14
27
18
26
13
18
20
22
18
21
29
16
21
20
13
13
20
15
11
18
16
17
12
17
13
17
11
20
16
16
11
9
14
12
13
16
18
14
19
15
17
13
13
11
15
20
10
13
11
17
20
7
15
16
11
17
16
10
12
16
11
9
14
19
16
20
15
11
11
19
18
11
17
17
13
19
9
14
15
20
13
16
11
16
13
12
13
8
21
11
17
10
16
8
5
3
6
6
4
3
3
8
5
7
2
6
4
6
5
5
8
7
5
11
11
4
4
9
9
6
7
5
10
10
8
20
37
24
12
20
20
25
17
21
22
25
23
19
24
24
16
17
19
19
14
15
12
19
22
18
8
11
14
18
15
18
18
27
13
12
16
15
17
15
13
8
20
6
19
13
7
9
17
15
9
16
14
16
18
16
8
12
12
13
11
10
15
9
11
10
15
13
16
16
7
18
8
14
15
15
11
20
19
10
11
14
16
7
6
9
15
19
15
10
8
16
8
11
16
16
8
10
13
18
13
21
8
15
11
14
16
16
15
14
16
12
9
14
8
11
8
14
15
15
36
76
85
83
65
60
54
48
46
45
49
42
39
44
40
38
33
39
29
25
24
20
28
22
24
20
20
27
26
16
15
16
13
18
16
17
13
12
12
23
9
8
15
8
6
13
13
8
15
13
5
8
10
7
11
11
14
9
7
9
9
15
9
9
14
9
8
5
16
8
12
9
9
11
11
12
10
7
14
13
10
11
12
10
9
18
9
5
10
11
5
9
4
11
12
7
9
16
9
9
17
4
6
10
5
4
8
15
12
6
9
10
11
15
9
9
5
4
7
8
19
117
70
70
69
76
65
62
67
45
59
54
52
47
44
41
38
23
34
28
26
43
40
30
32
19
25
26
35
24
10
31
17
25
12
15
14
14
16
23
21
19
15
14
16
22
17
19
22
25
14
15
9
17
14
16
17
17
21
20
10
14
20
7
13
11
17
15
13
17
10
11
16
12
13
17
17
21
14
16
18
13
10
18
17
18
14
19
15
10
11
21
17
13
17
18
19
14
11
18
9
17
16
19
19
19
13
21
9
7
19
10
16
11
10
11
10
14
11
8
15
3
2
5
5
6
3
6
8
2
12
5
5
6
7
6
8
4
9
8
3
3
3
6
4
4
2
11
7
6
4
2
5
2
10
3
11
27
30
25
30
26
16
34
12
16
23
24
18
19
15
16
27
18
16
17
13
11
27
14
10
9
19
15
16
17
12
19
19
13
19
16
21
8
10
10
9
16
12
9
14
18
13
13
13
10
13
16
12
15
10
18
9
17
15
12
13
10
14
6
11
15
9
10
13
13
18
16
11
16
21
19
24
14
6
15
8
11
14
8
13
18
13
9
14
10
11
15
12
18
12
12
18
13
13
19
13
10
16
12
15
11
15
11
14
11
8
14
13
17
14
10
23
13
10
11
19
93
84
64
71
75
63
59
57
54
38
56
49
45
38
36
25
33
31
29
26
20
26
26
18
21
22
15
24
26
19
17
9
12
18
16
10
16
5
13
14
18
7
17
16
12
14
14
12
9
9
9
10
6
12
12
14
8
9
5
9
7
14
12
11
10
8
5
11
2
7
6
13
11
11
13
13
18
8
6
13
7
10
8
7
17
6
11
8
11
7
14
9
11
2
11
9
12
8
10
12
8
3
13
17
8
10
13
16
15
11
7
11
9
11
9
9
14
5
9
27
91
86
72
87
77
64
45
52
54
53
43
37
40
48
43
39
27
38
36
30
33
21
22
24
28
17
28
23
22
22
20
23
17
25
22
28
16
19
19
21
22
18
15
16
19
21
18
15
13
23
16
17
10
12
15
17
11
15
18
15
21
14
17
13
11
15
11
9
13
13
11
14
16
17
16
19
18
15
11
13
16
12
16
15
18
11
24
16
17
13
14
12
20
15
11
7
10
16
14
15
18
21
17
13
12
25
11
16
12
22
20
15
17
20
10
8
16
11
6
18
5
10
9
4
9
5
9
7
5
6
6
9
4
11
3
7
7
3
6
3
1
5
6
6
11
7
5
9
4
9
5
4
6
10
2
4
5
6
5
8
30
20
20
24
25
23
27
24
33
18
25
15
21
26
15
13
24
16
20
16
16
18
14
16
20
18
17
20
11
8
22
15
17
17
13
13
17
14
15
25
13
22
23
15
18
20
10
18
17
15
17
18
13
12
14
19
14
19
14
11
14
18
16
14
17
12
15
11
13
18
21
13
18
12
20
14
19
18
17
9
20
14
11
14
14
11
13
9
13
17
18
18
10
15
11
10
11
7
15
15
13
15
14
14
13
15
13
11
8
15
13
11
17
16
16
16
19
15
15
26
113
72
75
70
61
56
51
45
37
46
50
44
34
34
26
32
33
40
32
19
22
26
23
28
20
18
15
22
25
11
15
12
15
17
10
6
13
11
17
13
14
14
11
11
22
11
12
14
6
6
9
21
6
13
5
8
4
9
11
9
16
7
7
10
10
13
3
13
12
14
9
10
4
11
14
11
7
9
11
8
9
15
7
14
9
5
9
11
9
6
12
11
10
7
5
11
8
11
10
9
15
14
3
12
5
6
9
7
7
18
8
4
9
6
7
6
15
6
8
15
108
88
77
71
59
61
58
66
57
67
56
54
43
51
51
46
38
37
32
29
28
23
31
34
31
21
16
29
22
14
22
16
24
25
21
20
19
26
20
28
26
15
19
23
17
11
13
19
13
22
12
16
6
14
19
19
23
14
16
17
20
14
12
11
15
10
13
13
11
10
12
10
16
15
19
18
11
12
17
10
14
10
6
15
8
16
13
10
9
21
19
13
11
23
9
16
11
8
14
19
20
13
15
7
17
18
11
12
3
19
16
11
13
12
15
10
9
10
18
14
11
5
4
5
1
8
5
6
7
2
5
5
3
7
4
3
2
4
5
5
3
6
6
6
6
2
6
5
3
6
7
13
7
6
4
6
3
4
6
2
7
7
10
8
31
36
25
29
28
23
34
27
30
20
19
23
18
9
20
19
23
9
13
11
15
18
14
17
13
15
12
9
8
10
12
13
13
24
17
11
18
19
13
17
11
16
14
19
12
8
14
13
15
12
14
15
15
14
11
19
13
12
12
14
15
12
14
19
14
14
20
15
22
11
14
13
12
23
11
19
23
8
17
9
20
17
12
13
14
13
15
11
15
22
8
12
16
18
16
17
13
15
15
11
18
13
9
14
11
23
20
13
12
13
9
18
12
9
7
14
15
20
17
41
102
69
63
53
63
51
53
43
48
48
46
50
33
42
36
26
28
28
23
26
22
21
21
21
13
19
22
23
13
19
20
11
12
12
15
12
13
6
13
10
14
6
9
10
12
19
16
10
13
12
13
17
16
7
10
5
10
11
11
10
13
4
6
12
16
10
10
11
16
12
6
11
18
12
8
5
14
10
11
10
15
10
10
13
11
7
9
5
7
12
9
10
8
10
5
10
11
14
7
8
10
8
4
6
11
12
8
7
14
11
12
7
11
16
8
8
6
11
16
21
93
105
53
77
65
52
55
55
59
60
53
57
41
38
46
37
37
31
30
32
29
28
24
41
31
23
27
17
18
11
23
22
16
23
15
21
16
14
17
25
12
17
20
9
16
20
17
19
16
19
14
16
21
14
12
8
11
22
12
18
13
14
18
13
18
14
15
11
10
14
9
20
20
15
11
18
16
14
15
9
11
9
10
16
15
18
12
17
12
13
9
15
15
19
18
16
8
7
9
14
9
19
21
15
15
13
17
9
11
18
16
14
15
15
8
16
17
16
11
15
6
8
2
5
8
3
4
7
9
4
3
5
6
0
4
8
9
7
8
9
5
4
5
5
8
11
6
9
4
7
7
5
7
6
4
6
7
5
6
9
9
6
7
10
5
5
3
11
23
28
23
28
24
32
21
20
19
26
24
16
21
17
20
12
17
9
17
17
16
20
14
18
17
19
14
13
15
7
15
20
11
9
20
13
20
9
18
14
14
10
14
10
17
16
9
8
20
18
10
13
16
6
9
10
13
14
17
10
19
16
9
17
13
13
13
12
15
8
13
21
14
14
17
16
17
12
13
11
12
13
16
15
8
14
14
16
13
10
14
16
16
20
14
10
10
11
15
12
17
22
16
13
11
11
11
14
15
19
13
21
15
11
10
12
22
8
14
20
81
64
57
71
53
67
41
43
44
48
47
47
36
39
39
33
35
21
24
37
23
21
16
22
12
24
24
18
16
20
21
14
20
11
14
10
18
20
10
17
15
14
9
10
11
11
16
10
9
8
13
15
15
7
13
18
5
7
7
8
8
4
6
12
16
13
10
7
8
9
14
12
10
6
9
8
9
13
10
10
10
7
11
6
6
10
8
15
8
11
10
6
11
6
8
10
15
7
8
14
12
7
7
11
14
10
13
9
12
5
14
13
10
11
12
5
6
8
9
26
88
74
73
76
73
69
41
45
51
53
44
45
36
45
46
50
33
30
45
34
34
20
24
31
25
27
21
21
27
27
21
25
14
13
19
26
20
18
19
20
10
15
16
23
18
22
18
17
14
22
14
20
16
13
17
15
11
17
19
8
14
12
11
15
10
21
15
14
8
12
16
12
13
20
15
15
13
14
13
13
16
13
16
19
8
18
20
16
15
10
17
14
9
16
16
13
16
12
15
19
8
19
22
19
14
16
18
19
8
12
16
15
6
16
11
13
10
11
14
9
7
2
9
2
4
8
2
6
11
6
4
11
6
8
3
4
3
2
7
5
8
11
7
4
5
5
4
4
9
13
11
8
2
4
6
5
7
7
3
10
5
5
4
10
2
7
4
8
5
8
5
15
36
30
27
27
31
26
30
19
32
25
14
20
22
18
16
16
25
16
17
19
12
24
19
16
11
17
15
16
7
19
22
20
15
16
21
18
22
14
13
11
19
16
15
15
14
17
10
12
9
13
14
15
10
12
19
16
16
21
14
23
14
14
16
19
15
12
17
16
10
16
17
13
13
8
11
22
16
14
14
11
10
11
11
14
12
15
18
12
13
18
16
14
9
12
16
10
11
18
14
16
9
11
10
13
10
16
14
8
12
14
16
9
15
14
16
11
17
13
12
35
96
85
62
67
62
53
42
49
54
58
38
37
40
34
49
38
41
21
27
19
26
16
18
24
23
26
21
17
20
20
13
16
12
15
13
9
18
16
15
12
12
18
15
17
13
7
13
15
7
12
9
11
8
14
8
12
10
7
12
6
13
7
10
11
7
10
9
7
11
7
9
11
6
9
13
11
6
5
13
13
13
12
6
10
11
10
8
8
15
7
12
9
6
16
8
8
12
13
11
7
10
5
9
11
5
13
13
11
9
5
8
12
9
7
10
12
7
5
10
27
83
82
69
60
62
65
54
48
47
53
50
50
32
50
36
34
34
33
36
24
33
31
24
22
35
22
19
24
24
21
19
17
18
23
19
13
17
12
19
16
18
14
26
16
16
20
18
17
20
20
15
17
14
16
21
12
22
15
16
14
13
16
17
10
23
10
14
14
15
11
14
12
29
17
18
11
12
12
13
11
12
14
5
15
6
14
14
14
14
17
15
12
15
15
17
16
19
9
8
17
12
10
12
13
12
15
12
7
5
19
19
13
19
7
13
15
10
11
24
12
9
8
7
7
6
4
9
5
6
7
2
2
4
6
4
7
1
6
7
7
5
6
4
5
1
7
5
5
5
7
8
6
5
6
9
8
5
4
8
3
11
3
4
8
10
8
6
5
4
14
5
6
6
3
4
7
31
29
44
23
20
22
25
20
22
27
36
20
29
20
17
23
11
19
13
31
15
19
18
16
11
16
13
25
14
14
18
11
15
18
18
11
19
15
19
17
14
14
16
13
12
13
15
13
11
9
15
13
9
14
14
18
17
10
14
10
12
8
19
17
14
16
13
23
16
10
23
7
14
14
19
13
17
16
9
17
22
10
14
9
16
15
12
11
21
11
11
19
15
13
18
14
12
11
13
8
19
7
19
14
10
15
25
18
16
15
20
12
10
9
17
20
13
13
11
30
99
79
81
52
54
53
53
65
50
40
41
49
30
43
30
29
31
21
29
30
18
15
22
24
22
18
20
21
19
7
16
20
25
11
13
11
16
10
17
8
7
15
9
12
7
6
13
12
11
10
13
19
11
10
13
11
6
12
13
6
11
12
10
13
12
6
12
4
8
12
10
8
6
7
10
13
7
6
8
8
15
11
10
8
15
11
11
7
12
10
10
11
8
15
14
6
7
10
6
9
9
10
9
10
8
20
11
8
13
10
5
10
7
10
8
10
4
4
11
20
95
77
88
77
81
80
63
54
49
48
49
51
34
48
36
39
48
32
34
32
31
30
36
25
27
20
25
18
28
28
17
23
25
15
14
23
22
15
20
16
16
18
19
18
16
25
15
22
15
8
12
17
19
14
12
18
16
13
13
7
13
16
14
15
11
17
20
15
19
13
8
11
18
27
16
14
12
21
11
19
10
9
16
13
16
18
11
9
13
5
21
13
11
20
20
12
10
20
15
16
14
13
10
11
13
16
10
17
13
14
13
14
12
11
12
18
16
12
16
12
9
6
4
5
3
5
3
3
6
3
6
5
4
3
5
4
5
3
4
10
9
5
4
6
9
12
8
6
6
3
9
4
10
4
8
6
5
7
5
6
3
6
5
6
8
3
5
15
4
8
5
11
9
6
8
6
8
6
6
10
37
29
28
37
29
27
24
24
26
35
21
22
23
17
13
25
21
25
19
23
15
15
19
22
18
26
13
18
12
15
9
19
16
13
12
8
21
11
14
11
13
20
15
15
11
10
8
16
10
11
17
12
13
11
13
21
19
13
12
9
16
9
21
11
18
12
7
13
11
20
13
11
9
16
26
14
22
18
13
16
14
19
12
18
20
18
13
18
11
10
18
10
10
13
13
15
9
19
15
16
6
6
12
11
13
12
17
9
18
11
18
15
10
9
16
16
14
10
14
29
88
70
74
66
68
53
60
58
61
43
40
39
34
35
31
37
24
34
30
28
16
25
15
17
19
18
24
11
13
23
15
22
13
18
11
15
16
20
7
12
15
19
5
16
9
19
18
7
11
12
11
8
9
6
7
12
10
14
14
11
12
10
8
12
10
6
9
9
16
11
13
11
4
10
9
8
8
14
9
14
15
8
8
12
9
6
6
4
14
10
9
14
10
14
7
10
11
5
6
11
10
6
12
9
9
11
8
9
15
10
6
5
14
8
8
13
6
7
13
27
99
79
91
67
66
65
65
71
68
48
63
61
44
40
36
29
35
48
38
37
30
29
27
23
23
21
30
27
26
18
19
23
16
24
20
21
24
25
15
16
10
23
24
20
8
13
22
16
19
16
17
16
13
4
17
11
18
17
16
16
17
17
18
14
17
11
17
13
8
23
16
18
11
20
19
17
11
12
15
19
15
15
13
21
8
13
10
20
10
14
11
12
17
23
9
9
15
10
17
15
9
15
12
16
11
14
8
11
13
13
13
15
14
11
11
15
18
15
12
14
16
4
4
3
3
1
6
4
4
4
7
8
9
5
5
8
4
5
6
4
7
3
5
8
8
8
4
8
5
6
8
4
6
5
4
4
6
4
6
2
5
6
3
7
2
6
6
7
4
8
9
8
6
3
8
6
7
11
5
4
1
3
11
17
31
31
33
21
41
28
22
31
18
24
21
21
18
27
20
20
18
17
22
13
15
13
16
12
12
20
22
18
14
12
19
15
12
15
21
8
10
11
19
12
13
12
10
19
22
17
20
18
15
15
17
12
15
20
9
16
18
12
18
18
12
21
16
18
11
9
16
7
11
12
17
18
11
17
13
17
12
18
16
6
14
12
16
14
17
11
14
12
17
13
9
11
9
19
11
18
10
11
18
7
15
13
11
14
9
17
14
9
14
18
11
5
9
11
9
15
8
15
16
33
78
65
79
71
64
59
54
50
41
40
41
42
35
38
33
35
26
29
23
27
35
28
24
21
23
24
24
18
22
21
20
17
16
16
18
18
21
14
15
14
9
14
15
15
9
12
8
10
8
10
6
8
8
13
10
14
10
18
11
5
9
14
9
8
14
9
11
6
6
7
10
12
9
9
15
8
7
6
12
11
11
4
11
6
7
19
11
7
9
11
11
10
9
2
9
5
7
13
11
8
18
8
6
9
5
9
15
8
10
10
11
8
13
11
11
8
11
11
11
25
104
77
72
65
66
51
65
60
48
47
46
37
44
42
29
43
32
40
38
34
27
37
27
19
22
22
19
15
18
27
15
16
18
13
22
18
19
17
21
21
17
20
10
14
11
18
11
20
16
18
12
19
21
22
13
19
11
9
9
11
15
12
15
12
10
13
10
23
17
11
10
23
16
17
19
15
12
16
13
9
15
17
12
10
11
23
17
15
14
10
5
9
12
14
18
20
15
10
11
12
14
13
16
12
16
13
12
20
17
11
11
13
13
15
18
15
15
9
18
11
6
7
3
8
2
6
4
9
5
2
9
5
3
5
7
3
7
3
3
2
8
8
4
11
8
6
6
3
7
6
5
4
6
6
6
0
8
4
6
2
6
7
3
6
3
6
4
7
4
8
10
6
3
1
6
1
4
5
6
5
7
12
11
3
4
8
10
10
34
27
35
31
31
31
27
26
23
23
17
18
22
19
18
31
16
18
20
18
16
17
19
16
17
16
22
20
16
14
12
19
11
8
17
17
13
18
14
18
13
17
16
14
11
18
12
11
14
23
13
11
12
16
15
19
14
13
15
14
17
15
17
15
19
15
18
14
12
15
15
14
16
8
11
14
18
10
13
9
20
10
29
10
16
8
16
15
12
8
12
12
14
10
17
10
13
14
12
12
10
12
18
13
15
8
11
11
21
15
14
13
17
13
13
13
13
11
12
35
96
88
74
73
64
63
49
59
54
47
45
40
33
34
36
25
34
26
30
29
31
21
21
27
25
18
9
25
19
14
21
14
21
15
15
12
12
11
15
12
15
13
10
16
11
17
9
8
15
9
8
12
8
11
12
14
10
9
7
12
11
14
9
10
18
12
10
7
7
13
9
11
6
5
6
14
10
8
7
9
8
7
15
8
9
9
16
16
6
16
7
6
10
7
11
12
11
13
5
10
3
15
6
7
8
4
8
13
8
9
6
6
4
9
6
16
6
11
9
14
98
81
78
77
63
74
57
73
50
62
33
50
39
42
51
39
36
37
46
25
27
21
21
28
15
23
29
16
23
16
25
24
23
21
21
27
21
27
19
21
19
15
14
20
22
14
22
13
17
19
12
10
13
18
15
14
13
12
10
14
21
17
15
12
13
17
23
18
17
10
22
11
18
15
15
14
16
14
14
12
19
20
21
11
12
17
14
19
13
17
15
19
14
14
23
12
22
24
18
13
8
11
15
16
17
22
10
20
20
9
14
14
17
16
18
20
7
11
12
15
6
7
3
8
6
6
5
4
4
4
6
2
4
10
6
6
7
9
7
7
3
6
7
5
10
4
8
1
4
9
4
6
5
8
10
8
2
6
6
8
4
6
4
3
9
5
8
8
4
3
11
6
6
8
4
9
3
9
11
7
8
13
5
9
10
4
7
9
10
6
9
7
46
35
36
32
26
29
25
31
33
25
21
29
25
27
12
17
18
23
16
14
18
13
17
22
13
20
13
19
18
17
12
25
13
20
14
17
16
15
20
17
13
14
13
20
17
7
12
20
21
20
16
17
14
18
13
11
16
15
15
14
17
16
12
11
12
15
17
15
9
14
15
18
16
14
11
11
19
14
15
13
18
12
14
13
16
11
13
7
10
15
16
18
12
13
14
10
11
13
18
11
17
11
8
14
8
19
11
22
11
13
17
11
9
11
14
16
17
27
9
22
101
79
73
64
62
51
59
55
34
46
53
42
44
39
28
29
31
32
33
32
23
27
17
22
13
19
20
11
18
15
17
11
14
15
15
20
11
13
12
7
13
10
10
10
12
11
8
4
12
14
8
15
13
8
16
12
13
8
13
12
7
15
10
11
11
12
16
7
7
12
8
15
15
13
7
7
13
15
6
5
4
9
11
7
12
10
9
10
9
14
8
4
6
18
12
9
9
11
13
8
8
9
7
6
20
11
12
10
11
11
15
9
10
10
11
10
6
6
10
23
111
96
91
84
62
62
55
56
48
52
50
38
42
45
39
41
30
30
37
35
24
40
19
23
40
28
25
22
26
22
20
19
21
14
24
16
22
15
19
16
17
25
8
22
18
15
16
12
16
17
9
15
11
16
24
12
9
24
18
8
12
12
16
20
21
13
14
14
13
5
12
14
17
11
12
9
13
11
19
13
6
11
13
9
17
15
19
19
17
11
14
13
14
10
9
14
11
9
7
16
15
9
15
15
12
22
12
13
11
14
14
13
15
13
9
12
13
12
14
6
3
4
3
4
5
5
5
6
9
4
3
3
7
5
9
5
4
9
6
4
2
9
8
2
2
2
9
5
10
7
6
9
3
2
6
4
8
2
8
8
7
0
7
6
8
9
5
8
3
5
2
6
7
11
5
3
4
6
12
7
5
4
4
8
8
4
8
4
2
6
8
6
4
4
6
21
35
34
30
29
25
28
17
27
17
19
23
17
21
15
26
23
24
18
23
19
20
19
23
14
22
12
15
17
13
9
10
15
16
21
12
15
12
11
17
13
13
18
15
7
10
14
11
10
13
17
16
9
8
18
14
13
19
13
13
15
12
16
12
9
6
11
11
8
14
12
17
11
18
14
21
13
11
16
16
12
12
16
13
13
18
16
17
11
5
17
13
18
10
10
12
17
17
18
11
16
18
17
9
17
18
15
13
14
13
11
15
11
14
4
16
17
19
13
8
22
101
71
72
60
66
62
58
44
54
34
52
33
34
44
44
26
35
31
35
19
23
22
17
20
26
17
19
13
20
22
20
24
14
17
5
15
20
13
15
11
14
11
14
13
10
8
16
12
13
11
16
17
10
10
6
10
6
10
15
15
16
12
11
9
6
13
9
11
8
13
12
5
12
8
9
11
3
9
11
8
16
18
10
13
7
14
9
12
16
13
7
6
13
5
10
3
7
7
6
12
14
9
10
8
12
10
11
10
6
7
14
14
7
6
15
6
13
9
10
19
109
71
70
58
67
49
60
56
48
56
47
52
52
28
40
38
33
38
33
30
28
29
26
30
20
28
20
20
21
30
23
21
20
19
21
13
14
22
18
18
14
10
16
18
24
12
13
16
9
11
18
17
16
16
12
19
16
10
13
14
20
14
14
11
8
14
15
10
16
14
12
13
8
13
12
13
13
11
15
13
15
13
17
10
14
12
18
14
8
12
10
9
18
16
16
12
11
15
15
8
11
13
14
22
10
17
15
16
12
13
15
15
12
13
11
13
15
9
19
5
7
5
4
3
1
3
6
4
6
5
7
7
6
10
4
8
4
5
3
6
4
8
6
3
5
4
7
6
6
4
5
4
7
8
5
9
3
4
0
6
5
5
6
7
7
7
4
3
7
7
7
10
1
9
5
4
7
6
7
6
2
9
6
7
3
3
7
2
5
6
6
6
3
6
9
3
6
5
11
13
41
28
34
28
23
30
23
25
35
26
17
19
25
30
20
17
16
15
23
18
18
16
23
17
14
18
13
11
16
18
23
13
15
13
14
21
19
8
9
13
15
20
8
14
12
10
18
16
11
15
17
14
7
15
14
14
14
11
15
4
12
12
10
16
11
12
10
15
13
18
13
13
18
11
9
16
16
16
12
17
14
17
13
22
13
9
15
14
12
19
16
11
14
15
13
18
9
14
13
10
3
16
15
22
10
12
14
12
14
14
18
15
16
18
4
11
17
17
22
28
98
87
60
57
72
43
73
44
50
45
44
50
35
38
43
33
30
34
23
25
23
27
25
20
23
22
20
19
16
11
18
21
9
11
14
16
11
9
10
10
11
8
11
10
16
12
11
15
7
12
8
6
13
9
7
11
14
14
10
13
15
9
14
10
12
13
12
10
14
10
10
10
14
15
8
14
12
15
9
14
8
5
10
7
12
10
10
7
9
7
11
12
4
8
9
9
7
10
15
8
10
8
7
10
9
14
9
6
12
11
10
13
9
6
2
7
9
9
9
32
107
89
68
59
72
69
66
54
51
46
36
46
43
40
37
24
30
34
23
26
31
24
25
30
36
25
25
23
23
20
18
33
23
15
16
19
24
13
16
19
22
14
24
16
15
18
14
17
19
11
16
18
17
14
15
20
22
19
17
12
14
13
19
9
16
16
16
17
14
18
12
11
12
19
18
14
17
13
14
7
17
12
10
11
17
15
16
28
16
16
9
14
10
22
13
14
20
13
13
17
23
7
13
15
22
11
9
9
11
11
12
19
16
15
9
19
12
11
14
17
6
4
5
4
4
5
9
8
5
4
5
4
7
0
4
11
6
8
6
4
4
8
7
5
4
10
5
8
3
8
6
11
5
9
6
3
8
5
6
6
6
7
6
7
7
6
9
8
4
5
7
10
5
10
4
3
9
5
9
9
8
7
9
8
10
4
6
6
2
5
6
6
7
6
6
13
11
6
6
7
7
5
5
7
40
32
36
24
25
31
25
27
41
19
29
29
14
21
17
22
22
20
26
17
20
12
24
11
12
21
22
11
17
15
14
24
13
20
12
13
17
17
20
15
9
12
15
20
21
18
14
13
10
13
18
10
10
16
11
12
15
9
10
13
9
9
15
6
16
13
16
10
24
15
12
13
11
9
19
13
16
12
12
15
13
20
12
13
15
23
8
13
16
20
6
13
12
16
14
13
9
13
13
13
12
14
17
9
17
14
8
12
10
15
12
13
12
15
14
18
15
11
14
27
97
69
79
77
65
42
44
50
45
45
38
36
40
22
19
25
24
26
27
24
26
21
23
21
24
16
13
16
19
16
13
17
15
20
11
9
10
12
12
10
9
10
7
9
13
7
12
11
10
14
6
12
13
18
7
16
4
11
11
8
11
7
8
12
16
7
8
10
7
11
11
8
7
14
11
9
10
9
12
16
10
9
6
7
9
6
5
13
10
8
11
14
13
7
7
15
13
11
16
6
10
11
10
11
6
8
9
14
7
15
11
8
7
12
7
9
12
13
6
23
107
92
81
86
76
70
62
66
52
42
42
43
54
47
29
32
29
31
31
25
28
30
23
25
20
27
27
19
24
24
18
24
30
20
17
22
24
22
18
17
19
13
13
21
22
21
11
16
20
8
16
17
15
9
13
10
11
11
21
11
19
11
14
7
16
11
16
18
16
20
15
12
12
13
16
24
17
17
17
11
8
11
18
13
16
16
18
15
18
21
11
13
15
14
11
14
9
13
9
11
10
16
18
14
13
11
13
10
16
10
11
12
11
15
14
12
12
13
8
12
7
5
8
5
7
2
5
5
5
8
7
4
6
3
3
10
6
8
5
6
2
7
4
7
3
7
3
10
10
5
12
6
4
2
4
4
7
6
2
0
8
7
3
7
8
6
6
7
6
5
7
7
6
2
8
3
11
5
10
7
5
5
6
3
8
6
4
7
9
5
5
9
10
2
9
5
5
4
6
9
3
6
5
6
3
8
6
13
31
31
26
39
23
19
40
30
29
27
25
23
27
23
21
23
21
18
30
27
20
17
18
20
23
18
11
19
18
14
8
13
15
13
13
17
17
8
19
12
12
13
17
13
14
13
16
12
11
17
6
21
14
16
12
17
11
12
10
13
16
20
9
17
6
9
16
20
10
18
13
15
11
19
14
16
16
16
15
8
20
16
16
17
12
19
12
16
10
13
12
11
17
13
11
22
17
16
15
10
17
18
11
9
15
18
14
20
11
10
19
12
16
12
9
13
13
15
21
27
88
62
70
67
62
59
65
46
60
46
48
32
41
36
24
40
25
28
25
26
23
30
22
16
17
27
13
24
15
20
15
15
15
15
17
14
10
11
9
15
10
15
12
11
10
18
4
4
7
7
9
11
16
9
12
8
13
12
4
14
9
16
9
8
6
19
8
12
11
6
11
12
13
12
12
15
9
13
16
7
8
10
8
10
11
7
12
18
12
11
13
8
11
14
8
4
6
10
8
12
12
8
9
8
7
9
5
6
6
9
6
7
6
10
10
6
9
9
12
26
94
83
71
78
64
68
48
50
60
44
55
47
40
36
48
31
40
36
31
39
42
29
34
19
23
24
32
31
16
23
19
21
26
24
21
13
17
17
15
17
19
24
13
12
21
10
13
20
20
16
11
17
15
18
14
12
12
8
16
14
22
24
18
14
22
20
18
14
13
13
12
15
10
12
9
10
19
14
13
11
9
15
17
10
17
20
15
13
13
16
8
9
19
13
13
17
16
11
8
6
22
9
14
15
13
17
19
15
10
13
19
15
22
18
16
13
15
12
11
13
8
4
7
3
5
7
3
5
6
2
3
7
4
5
8
8
4
4
5
4
6
2
6
6
11
4
6
2
4
5
6
4
5
9
4
10
4
2
7
3
8
4
8
5
4
2
11
3
4
9
7
10
3
6
3
7
5
3
5
6
10
4
6
5
5
7
3
5
5
4
3
13
5
5
4
5
7
6
5
4
9
4
7
3
8
7
9
8
5
9
9
12
40
26
34
32
34
23
25
25
32
30
32
19
27
17
20
21
18
12
11
18
12
19
24
22
17
15
22
24
13
14
14
13
20
20
12
17
11
18
16
10
21
11
13
14
10
11
19
17
20
14
12
9
17
15
11
20
14
10
16
9
8
10
23
15
14
10
11
13
15
9
21
9
19
18
9
12
12
14
15
24
18
9
7
8
20
21
28
14
14
11
7
19
18
13
12
11
14
12
13
7
8
6
13
18
18
15
13
16
19
18
12
14
17
16
19
10
13
16
13
26
78
87
45
61
62
71
58
49
44
46
47
41
37
31
42
29
28
31
36
21
22
24
26
15
16
12
19
16
23
20
14
15
13
16
13
15
14
12
10
15
15
13
10
16
12
8
7
12
7
10
11
8
7
12
9
10
11
14
7
13
13
13
3
13
10
10
10
9
12
12
13
13
8
5
14
10
6
8
14
8
10
8
7
6
12
12
13
9
8
6
12
13
12
9
15
9
3
9
14
12
12
8
9
7
9
9
6
13
5
5
8
10
9
14
14
8
6
7
8
24
94
79
66
67
64
55
64
60
53
49
51
38
34
41
40
39
45
26
31
32
30
26
30
32
22
28
24
20
19
20
27
36
19
15
14
15
20
21
15
15
15
20
13
16
14
10
13
11
15
19
13
13
14
12
14
13
10
17
14
9
17
15
12
13
12
16
15
9
11
17
15
9
22
9
10
22
12
11
15
17
18
21
13
6
13
17
14
17
14
9
17
11
13
9
13
15
18
9
10
11
15
9
17
17
13
14
13
12
12
14
13
15
11
14
6
8
14
12
26
18
8
5
3
7
5
9
3
7
4
7
5
8
8
9
7
14
6
4
2
11
4
5
6
6
4
5
5
6
6
9
7
3
4
3
4
4
6
12
2
10
11
5
7
4
9
4
6
6
3
5
2
5
5
4
6
4
5
10
3
4
5
4
4
6
3
7
5
7
12
4
4
8
9
6
4
8
6
10
12
10
9
7
8
8
3
7
9
3
6
4
17
4
6
3
4
8
42
37
28
41
37
40
18
20
30
20
31
28
17
24
24
18
13
21
22
22
19
16
18
19
18
24
15
17
19
15
16
17
18
13
16
12
12
11
21
17
13
10
14
8
15
13
9
15
12
17
16
18
17
14
12
12
14
18
19
15
18
13
13
12
14
17
15
8
8
15
14
15
24
14
24
14
20
20
16
12
21
9
15
12
12
11
9
14
13
11
17
16
11
16
9
9
16
13
24
10
15
16
19
14
14
18
16
15
13
11
16
11
14
12
10
14
17
11
11
26
101
78
79
64
65
49
53
57
46
43
47
32
49
36
22
30
29
35
28
28
26
31
21
31
30
16
18
25
28
15
15
16
13
13
17
15
13
18
14
11
12
17
11
11
9
15
16
14
10
10
6
10
15
14
13
17
15
7
10
12
13
10
7
11
9
11
14
10
7
5
5
11
8
9
9
9
7
12
9
13
10
6
14
5
5
10
6
8
8
15
10
11
15
5
11
5
9
11
8
12
6
10
13
3
13
10
11
6
8
12
11
9
14
10
10
20
6
9
15
16
89
86
75
68
66
75
55
38
51
46
45
48
38
38
36
21
46
25
40
32
28
29
27
28
23
23
24
28
26
15
17
18
28
27
12
13
14
21
24
23
16
11
14
8
15
15
9
15
17
24
18
13
13
17
10
20
13
15
16
19
19
14
13
13
17
18
16
17
19
18
21
12
14
12
12
11
13
15
12
17
11
11
26
10
8
23
14
12
6
19
22
19
10
16
14
15
15
10
12
12
11
14
16
9
13
12
6
7
10
14
13
8
9
12
15
9
18
13
15
13
9
6
8
5
5
7
3
4
8
11
5
6
6
5
6
2
10
7
6
5
11
3
5
13
4
3
9
2
8
6
7
4
5
8
6
2
6
8
2
7
4
6
4
7
6
6
3
8
10
3
8
10
8
2
9
12
8
6
5
6
7
11
4
5
6
7
12
5
5
7
9
5
8
6
6
2
3
7
5
10
3
5
8
4
8
5
4
6
7
4
4
3
5
6
4
5
10
11
7
10
39
32
27
36
30
30
28
38
32
28
26
27
21
27
20
13
17
12
19
17
20
17
14
20
11
22
12
13
21
23
10
14
15
14
17
20
18
12
17
16
17
19
13
11
14
9
8
16
15
18
8
17
18
19
17
16
12
13
12
17
19
15
10
17
11
13
11
12
14
10
15
16
12
12
10
13
17
16
10
12
25
15
13
17
12
21
4
12
11
9
15
23
17
16
13
15
17
12
16
10
16
17
11
13
18
15
13
21
17
13
7
10
17
24
13
9
13
10
20
35
88
78
76
56
57
52
61
43
37
49
45
37
37
36
26
26
25
20
23
30
22
22
30
30
16
14
17
13
20
23
16
21
20
22
7
17
13
10
14
19
9
11
12
14
9
9
14
11
11
12
8
13
12
10
14
10
17
11
8
10
12
12
11
6
16
8
10
13
12
10
8
8
9
11
10
9
10
2
7
10
8
5
8
11
6
13
8
11
17
3
8
10
13
13
10
11
8
10
14
11
17
6
5
12
6
13
5
7
4
18
5
8
10
10
8
10
5
10
11
23
98
81
90
80
64
69
61
70
49
45
52
43
50
42
32
43
41
34
34
42
26
28
37
23
19
15
30
18
22
11
17
22
16
23
15
23
23
12
19
20
21
22
10
12
21
20
15
16
17
15
17
11
15
19
14
13
15
22
9
8
14
15
12
12
11
17
7
11
13
13
18
14
18
14
18
12
20
22
14
18
10
12
19
18
19
14
15
14
11
10
16
12
7
19
20
16
16
15
11
13
16
11
20
13
18
8
8
19
15
19
9
12
16
14
6
14
10
15
13
11
3
5
4
3
3
7
2
8
6
9
9
6
5
6
5
4
7
6
8
1
6
6
7
9
4
4
3
5
5
8
5
5
8
6
4
8
5
8
9
10
10
7
11
7
3
4
8
5
5
9
6
6
12
8
6
12
8
5
9
6
4
6
8
4
6
5
6
6
5
7
7
7
4
5
3
6
7
6
4
4
2
5
8
4
7
7
3
6
3
6
5
7
4
4
9
9
7
3
7
7
5
5
7
12
39
35
30
31
33
34
27
24
26
26
28
28
32
19
20
22
23
17
17
22
16
19
23
19
18
14
20
14
21
12
23
18
17
15
17
21
18
12
13
21
16
21
22
7
20
21
16
16
10
14
12
13
9
19
16
15
11
11
17
21
21
14
15
18
9
7
13
9
12
16
7
11
14
14
11
10
9
13
12
9
17
8
15
11
19
15
16
20
13
18
16
14
14
9
15
15
16
9
9
11
14
19
12
15
12
9
15
11
11
12
23
12
13
17
9
10
18
14
12
29
107
76
66
56
65
52
51
50
50
41
44
42
51
35
31
35
37
32
32
27
23
21
29
21
23
19
21
24
22
17
20
20
11
11
14
17
13
17
19
13
12
16
17
16
3
11
14
16
8
15
13
14
16
6
11
10
11
13
12
9
15
12
5
11
12
5
12
6
11
11
12
10
5
17
10
14
13
10
14
16
9
11
9
6
14
12
7
10
12
13
11
16
7
10
10
8
6
16
16
12
9
12
16
10
11
19
16
14
17
7
9
10
6
9
9
10
12
6
15
24
125
75
76
84
61
54
58
72
55
45
49
43
27
36
40
42
34
33
36
32
33
19
25
21
28
19
30
30
22
16
27
18
28
19
26
16
15
13
21
17
27
20
6
18
7
17
26
17
18
9
14
19
25
11
18
14
18
8
24
20
15
14
15
9
13
19
9
13
16
12
18
18
12
15
15
18
16
17
19
13
12
10
16
15
19
12
15
10
12
21
13
15
13
18
13
15
12
19
14
23
20
12
12
12
11
12
7
18
10
10
16
14
8
14
13
14
14
15
18
7
11
4
4
4
5
0
5
8
5
4
3
6
11
2
9
3
3
6
5
6
7
10
4
4
3
7
6
9
9
3
7
6
3
5
7
9
8
8
6
10
4
8
4
11
7
5
2
2
4
7
5
6
3
5
8
3
6
7
1
8
3
4
5
1
10
3
9
4
10
2
8
7
5
10
10
6
3
7
5
5
6
3
6
5
9
5
7
10
5
9
12
5
4
3
10
4
11
10
5
10
5
5
5
4
4
3
5
5
37
32
34
28
30
28
21
30
28
20
32
22
25
25
22
26
17
21
20
18
13
26
22
14
15
27
11
16
13
18
15
24
14
10
23
18
17
16
15
13
17
9
18
12
16
13
11
18
12
17
10
12
9
15
10
18
13
19
16
17
9
17
11
18
7
16
14
15
16
8
17
13
14
12
17
13
15
14
8
17
10
24
11
12
11
13
8
18
8
13
18
17
14
15
16
16
17
17
14
11
12
16
15
20
21
19
14
11
10
14
10
9
14
20
14
11
14
11
12
27
91
89
84
69
61
60
53
52
42
35
41
39
25
28
30
36
32
28
23
24
27
20
18
16
24
12
19
26
19
18
15
14
15
10
9
17
13
14
15
15
15
16
15
12
13
14
11
12
3
10
8
9
6
10
15
8
12
17
8
9
13
10
11
10
7
7
4
8
9
8
7
8
13
6
12
6
8
13
10
7
8
12
11
6
10
7
8
14
5
7
16
12
6
14
9
9
8
9
12
13
11
8
8
9
10
13
7
7
14
8
10
11
6
12
6
9
7
6
14
25
89
82
69
64
67
65
60
73
43
54
37
38
48
35
38
38
34
30
33
36
29
27
23
30
24
31
22
14
22
29
22
29
12
14
26
20
16
22
16
17
17
13
24
10
17
18
15
15
9
16
15
15
11
17
19
16
14
10
12
14
15
19
22
17
11
13
14
16
19
17
16
20
13
14
7
16
18
13
15
14
14
13
16
17
13
18
11
17
15
18
20
20
20
20
5
14
18
13
16
14
14
9
15
16
15
15
14
14
11
20
14
12
16
20
15
13
21
18
12
13
10
3
8
7
4
7
2
9
8
8
7
5
4
6
8
9
7
3
3
4
2
7
5
6
7
3
8
6
5
6
7
5
7
7
4
10
7
7
5
5
5
9
3
7
7
4
12
2
9
7
10
5
9
5
7
7
8
7
6
5
4
9
5
5
7
10
8
8
6
3
8
9
1
5
7
4
6
4
6
6
10
9
8
9
3
6
5
8
2
8
7
4
8
6
5
4
11
6
8
7
8
4
7
6
3
6
10
6
7
6
6
9
33
43
34
32
30
32
20
38
25
24
19
24
24
13
22
16
25
24
23
23
27
17
18
13
18
21
25
13
19
17
11
17
20
20
12
14
15
19
21
13
18
24
22
15
17
13
7
19
15
13
25
13
13
12
17
16
13
13
18
18
12
13
17
14
17
16
6
10
13
19
15
16
17
18
13
11
13
16
19
22
16
13
15
9
9
8
12
14
14
13
11
13
17
10
14
16
10
10
18
14
7
11
16
15
18
16
11
12
13
13
16
11
11
18
14
10
15
11
11
27
93
62
78
48
40
57
47
46
45
50
48
34
33
39
43
29
28
24
21
26
23
30
30
8
18
20
21
23
14
17
19
14
15
15
14
12
10
13
12
11
11
11
12
13
7
11
17
7
8
6
8
14
9
11
12
14
8
9
8
13
11
10
9
9
7
14
7
10
11
6
11
11
7
14
11
5
9
7
10
13
7
7
6
12
13
7
17
10
4
8
11
8
17
10
7
14
7
9
7
8
15
7
12
6
6
7
12
12
11
5
5
10
16
9
11
9
11
9
8
28
80
71
73
76
70
61
61
56
58
39
50
52
51
34
48
44
31
43
37
33
22
33
24
29
26
22
32
17
18
23
16
34
15
30
17
16
23
18
16
9
16
23
7
22
13
18
16
25
19
18
18
18
20
20
16
14
13
17
19
12
10
12
16
9
16
14
10
12
10
19
15
14
20
20
17
11
19
13
11
8
11
16
21
14
15
16
18
17
15
11
20
13
11
16
18
20
14
16
11
19
19
10
18
13
7
18
13
19
13
6
13
9
9
16
18
10
11
20
18
11
8
3
4
4
3
1
5
5
3
6
3
3
4
4
5
5
9
6
9
6
5
8
3
6
3
9
5
10
15
4
7
4
6
8
5
4
4
3
10
6
9
8
7
7
4
7
12
8
4
6
2
6
9
3
4
6
7
5
7
6
8
10
8
6
2
3
5
2
8
4
3
6
3
9
8
9
5
6
4
7
7
4
5
3
4
7
5
6
10
9
5
6
6
7
4
5
5
9
10
9
8
7
5
9
6
6
7
11
3
6
8
7
9
3
7
13
40
39
43
37
32
26
27
27
22
25
24
28
24
25
22
20
27
14
15
16
23
23
17
15
19
20
14
16
15
11
14
24
18
18
19
18
12
20
18
16
12
14
12
11
10
15
12
18
23
18
10
16
17
12
20
17
13
16
17
20
13
17
19
20
10
18
16
16
8
17
14
13
9
15
13
9
16
13
15
18
13
20
12
14
14
16
11
8
10
12
9
22
14
13
14
15
14
15
20
13
13
16
14
12
19
15
15
12
10
14
14
8
9
20
17
5
16
13
21
16
70
62
68
78
69
56
45
50
47
59
47
42
36
28
39
26
30
27
25
37
20
22
18
28
22
26
20
21
23
10
17
15
20
17
16
12
15
18
11
12
17
12
16
15
9
12
11
9
13
11
13
17
9
14
9
13
13
10
9
14
8
6
6
8
9
7
10
14
10
8
9
10
9
13
12
11
10
8
10
7
8
10
18
11
9
8
9
9
10
9
6
12
8
15
11
9
12
8
11
10
3
16
10
14
8
9
10
14
13
6
12
8
7
8
12
8
11
9
4
20
110
75
67
73
57
59
50
48
52
65
43
48
38
38
30
37
41
30
47
34
29
37
29
20
21
17
30
31
28
20
29
23
21
24
21
21
17
21
13
17
16
6
11
16
17
16
16
14
18
13
14
10
19
17
19
13
23
20
11
21
14
10
10
17
17
12
11
16
16
12
17
8
19
13
9
19
9
10
12
14
17
7
14
14
17
11
15
16
5
9
18
9
22
26
12
15
17
16
13
7
12
11
11
22
19
15
9
15
17
14
11
17
12
19
15
16
13
15
10
15
4
2
4
2
5
4
4
3
8
5
7
5
7
3
11
3
9
8
10
6
6
5
4
4
5
10
6
10
6
3
6
3
6
2
4
7
6
7
8
4
5
6
4
7
3
2
4
4
4
11
6
5
6
5
2
6
2
4
8
6
9
6
6
5
7
11
3
5
8
10
12
9
4
4
2
7
7
5
9
8
3
6
7
10
4
1
9
6
6
10
6
4
3
5
12
5
8
10
6
9
7
7
8
5
5
3
5
7
10
3
4
4
5
7
7
10
6
11
4
20
54
28
33
23
42
27
27
22
24
23
20
16
21
26
28
18
18
22
19
21
10
19
18
24
20
21
17
16
15
17
16
14
16
18
17
19
19
14
19
14
17
15
21
16
13
24
14
18
14
18
20
15
10
25
10
11
17
16
16
11
17
16
12
12
19
19
10
12
11
9
13
16
19
14
22
18
11
19
16
19
12
18
18
18
13
14
14
11
15
17
13
15
22
11
13
13
16
12
14
13
14
16
14
10
15
16
12
14
16
13
15
14
10
14
14
18
19
21
21
22
91
79
71
77
72
65
48
59
37
46
47
36
32
43
30
18
22
26
21
29
19
24
20
20
27
22
19
14
21
18
13
20
22
15
13
13
16
19
8
15
14
9
14
11
7
13
9
8
10
14
13
10
8
5
9
8
8
11
13
14
5
7
13
11
7
11
10
13
10
13
14
10
10
18
11
5
10
7
14
12
8
10
10
9
9
16
11
6
8
14
12
6
10
7
10
6
9
10
7
15
3
6
8
6
9
8
9
11
8
13
5
9
9
7
10
11
11
7
9
27
112
92
96
85
70
84
56
61
45
50
48
35
52
43
45
36
38
34
40
49
28
27
22
19
20
33
18
20
20
30
22
20
16
25
20
17
14
24
14
22
14
16
19
21
20
11
23
12
21
14
14
14
17
11
17
19
12
19
20
12
18
15
14
16
15
21
9
11
15
17
18
7
12
18
12
19
17
11
15
12
13
15
14
13
11
15
7
24
13
21
14
17
18
17
19
14
15
10
12
9
15
15
17
15
14
14
11
17
16
10
16
14
6
18
9
17
8
10
17
14
6
5
3
8
2
6
6
3
8
6
4
4
8
5
9
2
5
4
6
4
6
6
2
0
5
7
5
6
7
1
7
5
1
4
10
8
3
9
5
5
2
4
2
4
4
2
7
8
9
4
8
10
8
4
12
5
11
6
0
10
5
10
9
5
7
8
10
4
9
3
9
8
6
6
4
8
6
8
3
10
8
9
8
4
7
6
9
7
7
12
2
5
7
7
8
9
10
5
3
4
8
5
6
7
5
13
4
8
12
10
5
4
5
4
3
2
7
2
10
5
7
3
9
12
48
40
29
36
33
25
15
22
28
24
30
22
22
19
16
19
22
21
15
22
20
17
23
10
18
14
15
19
19
15
9
13
20
11
22
16
27
20
14
19
11
11
14
15
12
16
17
12
10
14
11
13
10
19
17
16
20
14
16
18
8
14
15
11
14
10
10
11
12
13
13
21
11
19
18
18
14
17
13
12
15
25
9
18
15
10
14
17
13
12
17
13
20
8
12
15
16
17
16
12
14
13
19
9
10
10
10
15
10
13
17
17
13
11
5
14
20
11
14
33
80
81
71
69
57
57
55
45
59
50
44
47
39
30
28
49
31
26
30
26
24
24
24
31
22
20
15
19
18
14
11
10
25
19
17
13
13
9
15
7
15
11
11
13
15
11
6
6
13
8
10
9
12
11
14
15
9
12
11
8
7
4
15
12
10
10
4
5
7
8
11
6
8
6
10
12
14
11
13
12
14
12
11
5
13
10
4
11
4
13
8
13
10
10
9
14
9
7
8
14
9
6
9
7
8
12
15
8
5
7
11
10
3
4
8
8
8
4
13
26
104
84
77
68
62
51
64
59
60
52
48
55
55
33
46
32
40
42
36
40
32
22
23
27
22
24
14
25
31
30
22
23
16
19
19
20
16
14
20
16
19
18
19
21
19
14
13
16
17
11
15
15
12
15
16
16
12
14
14
10
16
9
14
9
12
14
13
14
13
17
15
10
11
21
9
16
17
16
13
16
15
23
11
13
16
16
16
25
12
8
16
11
16
20
12
15
15
9
19
17
11
22
20
11
15
9
19
16
15
15
18
16
12
8
19
13
10
9
18
7
8
1
7
5
0
8
10
8
5
1
5
7
1
6
7
5
3
6
7
8
9
5
5
4
10
4
5
6
8
4
4
8
6
8
3
2
3
4
10
12
8
5
5
9
4
6
8
5
3
6
9
8
3
4
7
5
2
10
7
2
8
6
5
10
4
5
10
9
6
3
9
6
7
4
6
9
7
3
7
5
10
5
6
8
7
0
7
2
6
2
1
8
9
7
10
5
7
3
4
11
5
1
3
9
5
12
10
6
6
8
5
2
10
8
4
2
3
2
8
7
6
1
9
4
5
6
4
15
40
47
24
31
34
36
29
19
33
29
29
24
26
26
22
32
14
29
15
14
23
24
18
23
23
11
16
14
18
17
15
22
20
12
19
21
19
17
9
17
19
25
20
16
20
16
19
19
17
17
10
17
16
9
16
10
15
19
11
20
13
17
21
15
18
14
14
18
16
14
17
17
18
10
18
14
11
15
9
11
11
11
12
8
19
9
7
16
15
14
15
15
12
13
10
20
20
9
10
13
13
10
12
10
16
15
16
12
15
15
13
18
15
16
16
20
22
16
15
30
103
87
76
89
52
55
48
55
46
51
42
38
39
36
31
33
22
35
32
23
23
25
23
22
21
18
14
15
22
23
16
14
16
14
15
21
13
17
14
14
14
13
11
13
4
10
15
10
9
9
9
17
11
14
9
7
8
10
6
8
12
11
12
7
11
7
10
6
7
15
8
10
4
10
10
12
9
10
6
14
8
9
8
7
11
6
6
11
16
15
9
10
10
8
11
8
7
12
12
6
6
9
12
3
6
6
8
11
10
9
8
11
10
10
3
11
11
13
12
21
105
76
74
74
70
55
63
47
50
46
54
43
55
36
46
35
38
44
26
41
25
29
17
31
25
28
24
20
25
27
24
20
19
21
26
21
30
17
24
14
19
12
14
25
12
18
8
15
19
11
12
14
17
18
18
17
15
14
12
15
19
18
11
13
12
16
13
13
13
8
16
11
17
8
18
10
11
12
17
10
14
14
14
21
8
18
14
14
17
16
10
16
18
7
17
11
12
17
11
20
11
15
12
11
19
21
12
14
18
19
14
16
11
11
14
12
17
11
12
17
4
6
3
4
5
5
3
5
4
4
8
8
7
3
4
6
6
5
7
3
6
2
7
4
7
8
6
4
7
7
6
4
14
4
4
4
4
4
11
7
3
3
7
5
10
8
3
6
3
8
5
2
4
11
4
5
1
8
7
8
7
10
9
1
4
1
7
5
2
5
7
4
7
4
5
9
2
11
2
5
2
7
6
9
7
7
6
6
3
4
4
7
6
11
4
6
5
4
9
7
14
8
8
4
5
5
6
5
7
6
5
7
4
7
5
4
9
6
4
6
5
6
5
3
3
7
6
5
7
6
11
12
59
32
47
34
37
24
35
18
20
18
23
20
10
20
30
18
25
26
15
23
21
16
19
17
19
18
15
19
11
18
19
10
22
17
21
8
18
13
15
10
13
11
7
22
20
13
14
15
19
20
15
17
16
17
14
10
16
15
11
23
16
17
15
12
16
16
10
15
19
18
11
18
4
16
12
16
18
9
22
14
13
12
13
16
11
21
16
20
12
12
11
15
9
16
11
16
16
13
17
16
13
13
20
15
16
17
24
14
11
14
14
10
17
16
14
18
15
18
16
26
113
71
77
62
70
51
58
48
46
40
34
43
32
29
36
29
23
22
22
25
23
30
20
20
23
22
22
29
18
11
20
14
19
16
14
16
12
10
14
16
15
9
15
16
15
4
18
13
7
8
11
9
15
8
10
15
14
8
11
9
13
15
9
13
8
9
5
15
11
8
8
8
13
11
14
5
9
5
9
10
7
7
18
15
11
11
12
12
6
8
15
7
9
10
9
7
13
12
11
10
11
17
8
13
6
8
11
7
10
12
5
9
5
10
11
14
9
7
6
20
104
76
84
75
65
76
72
53
51
46
52
43
53
40
35
35
29
35
31
30
31
29
18
25
31
16
25
28
22
18
19
17
21
16
16
17
14
15
12
16
17
17
15
16
14
12
12
17
24
17
15
14
14
19
15
16
12
16
15
15
18
14
9
13
13
19
9
17
8
9
13
15
24
13
8
17
19
11
17
18
11
14
15
13
7
17
13
20
17
18
12
21
16
15
10
14
16
18
17
24
9
16
16
12
12
16
17
13
15
12
14
14
19
11
12
16
10
18
19
17
5
11
2
4
5
6
5
8
6
1
7
4
5
5
7
3
4
5
3
3
3
4
3
3
9
2
4
2
2
7
4
6
4
8
5
3
7
4
1
7
7
9
4
4
8
4
4
4
4
6
6
3
6
3
3
6
8
5
10
6
12
8
7
6
4
7
9
5
7
6
9
8
5
4
5
3
5
5
10
8
5
9
4
6
10
9
10
5
5
3
4
4
11
4
9
8
4
7
3
5
5
4
8
11
8
8
12
5
4
6
7
5
6
7
3
8
9
3
4
4
4
6
5
6
5
2
8
5
7
6
11
5
5
10
6
15
45
37
36
34
32
32
30
30
26
25
26
15
22
20
27
30
16
28
13
16
21
15
27
21
13
14
19
11
20
16
16
20
18
19
19
13
15
23
13
12
21
15
14
10
20
9
11
24
7
12
13
17
15
12
14
15
12
16
19
12
20
10
15
18
17
14
18
10
8
21
17
20
11
13
12
8
15
11
14
11
13
15
17
24
19
14
14
21
14
9
12
12
13
11
13
18
9
18
11
13
16
14
12
12
10
14
16
10
12
14
17
15
12
19
11
12
15
12
19
25
84
85
58
82
46
60
64
50
39
49
39
31
47
31
36
31
25
26
32
24
24
25
18
26
33
16
14
16
10
16
17
15
20
15
7
18
12
9
15
13
15
10
16
18
9
7
10
10
6
6
16
5
10
8
12
16
13
15
14
10
12
6
16
16
9
8
8
10
10
13
7
8
7
11
10
11
11
12
7
13
7
12
8
10
18
10
9
5
16
9
9
7
8
11
6
9
14
9
10
12
8
7
12
16
7
11
15
11
14
7
7
13
4
10
10
11
8
9
11
24
104
68
63
68
76
60
70
52
42
49
46
49
38
46
46
37
35
38
29
26
26
26
27
36
17
35
14
32
16
20
15
25
24
15
16
16
17
19
18
18
9
12
14
11
14
22
15
21
17
16
7
16
8
15
16
12
14
12
17
18
13
12
12
15
12
19
9
13
11
22
8
10
10
11
18
10
20
14
12
10
13
16
13
9
21
14
15
13
14
16
12
14
12
13
17
13
18
16
15
18
14
16
17
14
14
15
14
15
10
17
17
17
10
15
16
11
18
15
13
16
2
7
7
2
13
7
7
8
6
6
5
8
7
2
7
5
12
8
6
8
1
5
8
6
3
5
7
5
1
6
5
7
6
6
5
7
4
7
6
2
6
3
8
5
7
4
3
7
4
6
4
2
4
4
7
6
6
1
2
5
6
6
9
6
1
7
5
13
7
6
6
5
10
10
10
6
5
5
12
1
5
4
6
5
7
8
8
8
6
7
4
3
10
5
7
7
2
9
6
10
5
4
11
5
7
8
6
6
5
9
7
14
11
6
5
7
5
6
3
4
7
5
4
2
7
6
7
7
9
2
4
3
2
4
11
5
7
4
6
18
39
37
33
31
39
23
37
21
23
30
28
24
27
20
22
18
20
19
19
21
12
15
25
24
16
12
13
15
20
19
16
14
17
16
16
14
19
18
17
20
13
18
23
9
21
11
14
8
16
18
16
13
20
16
10
18
17
15
8
16
13
16
13
14
15
8
10
22
19
16
10
13
14
17
17
16
13
11
16
10
12
14
12
16
13
16
13
6
13
17
13
6
11
11
15
8
16
11
16
6
18
12
11
18
15
17
15
9
19
11
18
13
12
15
19
16
13
20
10
34
95
72
85
63
86
62
55
46
51
55
55
48
41
37
45
28
31
25
29
29
18
26
24
25
30
21
20
16
18
13
16
14
18
9
10
12
13
14
9
15
13
16
13
6
10
12
12
10
16
9
14
16
6
7
15
10
10
10
14
16
14
10
11
16
10
13
16
7
8
7
9
12
15
10
7
13
18
13
11
10
10
7
9
7
4
5
5
4
8
4
8
14
12
7
10
7
9
13
9
13
6
3
10
7
10
14
14
8
8
10
9
9
10
10
5
5
7
6
12
14
109
94
66
78
70
57
73
59
57
43
51
45
26
29
44
39
36
38
26
37
36
30
27
28
37
27
31
23
27
16
20
19
18
21
15
21
21
19
11
17
18
18
14
16
20
13
12
20
19
14
14
17
20
14
12
16
8
20
13
10
14
10
21
13
15
19
18
7
11
9
13
12
13
12
18
15
11
19
13
21
13
10
18
10
6
12
14
18
17
8
17
11
7
15
11
15
11
18
10
12
13
16
16
14
10
12
13
12
11
8
12
9
19
16
16
19
8
14
11
17
6
6
3
10
4
4
9
6
5
7
7
4
5
4
2
6
6
8
5
6
4
12
3
10
6
3
4
9
3
3
6
5
4
10
5
6
7
3
4
6
4
10
6
9
11
1
3
4
3
6
3
7
2
5
8
7
4
11
7
7
10
6
9
7
11
5
7
7
5
7
2
7
6
5
7
8
5
10
5
10
7
6
5
8
7
6
8
3
8
4
7
4
6
5
5
4
3
6
8
8
9
8
2
6
3
4
3
4
6
8
10
7
7
11
7
12
10
11
5
4
10
7
7
5
5
9
7
8
7
5
5
7
6
9
10
6
8
11
9
6
8
2
12
13
37
35
40
32
24
24
26
33
29
18
24
30
34
25
23
26
26
18
23
25
23
19
24
21
21
17
13
14
24
15
17
20
19
16
16
17
11
19
13
17
23
23
10
14
20
15
13
12
15
8
9
11
16
13
10
18
16
21
14
22
14
16
18
17
30
14
14
14
16
11
9
10
15
18
17
13
20
14
12
10
9
15
15
9
22
12
12
17
15
14
11
16
14
15
13
18
13
13
18
15
16
12
16
13
11
18
14
8
12
12
15
16
16
7
8
21
19
12
17
25
98
75
69
77
60
62
64
65
57
37
36
32
34
32
29
38
25
33
33
28
27
25
25
28
15
10
24
22
25
17
15
18
23
9
14
14
13
14
14
13
15
16
16
14
11
12
7
10
13
8
10
9
10
9
15
9
11
9
7
4
12
10
12
9
7
10
9
8
7
10
11
7
12
11
5
13
9
9
5
13
11
4
13
9
9
6
13
12
10
13
8
5
14
11
9
10
10
12
6
4
10
6
9
8
7
11
10
10
11
9
8
17
9
8
10
10
9
15
6
22
99
93
71
73
65
60
53
48
61
50
50
62
51
56
31
32
34
23
25
32
24
23
45
40
24
30
19
14
25
20
19
20
23
17
26
11
20
11
9
13
18
14
19
15
20
14
24
13
16
15
19
11
16
13
16
12
10
14
19
9
20
10
15
14
8
20
17
23
12
13
11
11
12
18
19
16
15
20
21
7
12
20
22
12
14
10
13
15
10
17
13
21
16
14
18
8
15
12
19
19
13
10
17
14
12
15
9
11
13
17
16
14
10
18
14
14
17
14
18
17
8
6
4
11
3
4
4
2
5
8
5
7
7
6
4
5
7
2
9
4
5
8
8
3
7
3
7
5
1
7
2
4
5
4
7
5
5
4
0
7
7
6
3
7
5
11
10
11
9
6
7
9
3
9
8
6
5
8
3
6
6
5
5
5
7
3
2
6
6
7
6
6
12
4
7
5
7
4
8
3
9
4
5
7
2
5
4
4
9
7
5
8
5
5
4
6
7
5
3
5
5
5
6
6
4
4
4
5
6
6
6
8
14
6
8
3
5
8
4
8
4
5
8
6
4
8
10
9
4
11
5
6
7
3
8
3
9
9
5
6
4
7
8
9
6
7
15
8
32
48
36
38
33
32
20
28
32
27
27
24
23
24
18
28
23
23
24
22
16
19
22
9
17
25
18
19
17
13
12
16
15
12
17
18
9
12
14
13
16
22
20
18
18
9
12
22
19
12
14
7
15
11
16
14
9
22
16
14
16
14
13
18
16
12
9
13
9
12
19
17
12
21
9
20
14
13
17
15
8
15
14
17
10
15
22
10
11
13
19
13
14
15
12
10
14
14
15
14
11
12
9
11
11
10
16
18
7
15
13
12
10
12
13
13
22
13
12
32
104
82
67
64
71
47
60
54
48
56
41
42
39
36
30
33
41
32
28
22
22
24
19
15
22
22
15
21
18
17
12
15
9
13
10
22
15
14
8
12
21
14
17
15
11
14
12
12
15
12
13
10
11
9
9
13
9
9
12
11
8
11
10
10
9
11
3
11
5
9
6
10
14
10
12
12
12
12
10
11
18
6
9
5
11
9
6
7
10
14
5
11
9
11
9
7
9
17
12
9
4
7
10
16
11
5
8
4
12
11
4
11
6
13
7
9
11
9
9
38
97
91
89
67
82
63
61
55
53
56
45
48
53
48
33
35
25
35
40
42
32
30
32
15
34
28
17
21
25
19
21
23
20
22
24
19
22
22
15
18
14
16
16
17
18
18
23
15
19
28
18
12
18
10
15
17
23
19
10
19
18
7
14
17
12
16
12
6
19
14
15
15
24
20
15
16
18
16
13
16
10
11
8
10
17
13
14
8
9
14
10
13
17
9
23
16
19
13
11
21
11
16
15
13
18
15
21
15
16
19
14
15
8
13
13
5
16
10
10
10
9
6
7
7
5
7
4
5
7
11
5
5
7
9
8
8
10
6
4
4
10
8
7
3
7
2
1
7
13
5
2
7
8
6
7
5
8
4
9
6
8
6
6
3
4
2
7
6
7
6
1
4
6
12
2
4
6
4
7
2
10
7
5
7
7
6
3
6
6
7
5
4
4
7
2
7
4
5
7
3
8
6
9
9
5
7
6
4
5
9
9
3
4
6
7
7
6
4
7
4
9
7
4
3
3
5
6
3
4
6
7
3
7
2
11
6
15
10
6
5
5
5
6
7
7
3
4
6
4
4
8
8
3
4
0
8
3
10
3
8
5
2
5
10
4
13
7
3
7
2
10
10
50
34
28
52
35
25
30
32
34
29
20
32
16
34
18
14
19
15
24
17
19
29
18
25
14
20
19
19
17
17
22
20
17
10
9
11
11
16
12
17
15
14
12
14
16
13
17
13
17
12
11
7
14
13
16
13
11
12
16
16
11
6
16
12
18
18
15
10
17
15
18
17
16
14
13
15
10
10
19
11
14
23
14
8
15
13
14
11
8
22
14
16
13
14
7
16
14
21
13
19
10
12
19
15
14
18
9
17
13
16
17
15
19
10
15
15
7
17
13
34
76
77
85
68
59
53
50
48
32
38
44
31
47
35
46
32
32
23
26
24
23
25
22
19
15
21
22
12
21
19
11
18
17
11
13
10
15
16
8
10
9
13
9
12
9
21
12
8
8
9
8
16
13
16
10
15
12
6
9
8
7
13
10
6
10
11
8
5
10
7
11
5
10
12
5
9
11
9
10
8
5
11
6
7
12
15
11
8
12
11
12
12
9
6
9
11
12
11
6
10
11
8
10
10
4
14
7
7
12
11
6
6
10
8
8
10
8
13
9
28
91
84
72
70
61
71
56
48
53
47
45
41
37
36
33
38
38
32
38
27
28
24
21
25
21
22
29
21
22
23
19
20
18
27
18
15
19
16
16
18
13
26
20
12
24
25
12
22
19
20
17
17
9
11
2
11
12
16
11
12
24
13
18
13
17
17
16
10
15
15
17
14
11
14
18
14
18
16
16
17
12
11
17
14
15
18
10
13
14
12
17
12
14
16
12
17
12
12
15
11
12
16
17
13
13
18
10
16
10
14
19
15
13
14
9
15
14
11
20
13
3
5
5
5
7
9
8
9
7
6
6
8
6
6
4
4
2
7
3
5
6
3
5
4
7
8
6
2
3
3
5
6
8
9
8
2
2
12
5
7
5
2
5
3
4
8
0
4
9
3
8
10
7
3
7
4
8
4
5
2
8
2
8
6
5
5
7
11
3
8
8
2
13
10
4
10
9
7
7
7
5
5
3
3
7
2
9
9
5
9
1
10
6
10
9
7
3
7
4
5
1
8
6
4
9
5
7
7
7
10
6
8
5
7
6
11
7
9
7
13
5
8
6
9
7
6
6
5
5
10
7
8
5
6
7
6
7
9
7
3
12
9
2
10
7
10
3
6
7
12
7
6
4
8
6
10
45
39
40
32
29
38
31
31
24
20
22
20
21
24
22
22
20
22
20
26
25
28
19
19
19
18
18
21
17
20
14
24
14
21
11
24
14
18
20
12
17
12
13
19
16
20
20
14
15
11
20
20
15
6
10
12
11
9
22
20
16
15
10
13
15
12
19
14
13
14
19
13
20
12
16
13
18
10
15
11
14
20
17
22
7
11
14
20
13
12
15
19
19
8
11
15
14
13
14
12
6
10
14
19
13
13
18
17
15
18
18
12
9
9
20
16
12
13
14
18
6
5
8
2
3
7
4
6
4
6
7
6
3
4
4
4
2
5
4
5
8
9
2
3
8
0
6
1
3
7
9
4
8
3
4
3
1
3
7
3
3
4
4
4
4
5
2
3
5
7
3
4
7
8
2
1
6
4
5
3
4
5
9
5
4
1
5
1
2
4
5
0
1
5
5
6
0
1
5
5
7
6
3
5
1
6
2
6
5
5
5
2
4
3
4
7
3
7
3
2
2
3
3
6
2
2
4
6
2
3
0
4
7
4
3
5
2
9
4
2
3
5
6
2
4
1
2
5
3
1
6
1
3
3
2
4
5
2
1
2
3
4
1
4
1
4
1
3
4
4
3
2
3
4
6
2
7
6
6
6
2
2
4
6
3
2
3
3
2
0
9
4
2
4
3
2
4
3
6
2
4
7
8
3
4
6
7
4
