#Saved Data from the class pulsed_measurement_logic on 18.11.2022 at 13h41m18s.
#
#Parameters:
#===========
#
#bin width (s): 5.0000000000000001e-09
#record length (s): 3.7085000000000002e-05
#gated counting: False
#Number of laser pulses: 60
#alternating: False
#Controlled variable: [4720000000.0, 4721000000.0, 4722000000.0, 4723000000.0, 4724000000.0, 4725000000.0, 4726000000.0, 4727000000.0, 4728000000.0, 4729000000.0, 4730000000.0, 4731000000.0, 4732000000.0, 4733000000.0, 4734000000.0, 4735000000.0, 4736000000.0, 4737000000.0, 4738000000.0, 4739000000.0, 4740000000.0, 4741000000.0, 4742000000.0, 4743000000.0, 4744000000.0, 4745000000.0, 4746000000.0, 4747000000.0, 4748000000.0, 4749000000.0, 4750000000.0, 4751000000.0, 4752000000.0, 4753000000.0, 4754000000.0, 4755000000.0, 4756000000.0, 4757000000.0, 4758000000.0, 4759000000.0, 4760000000.0, 4761000000.0, 4762000000.0, 4763000000.0, 4764000000.0, 4765000000.0, 4766000000.0, 4767000000.0, 4768000000.0, 4769000000.0, 4770000000.0, 4771000000.0, 4772000000.0, 4773000000.0, 4774000000.0, 4775000000.0, 4776000000.0, 4777000000.0, 4778000000.0, 4779000000.0]
#
#Data:
#=====
#Signal(counts)
27
19
218
295
300
297
292
307
287
196
46
50
49
36
40
41
44
244
269
294
301
312
283
302
202
85
45
51
40
39
53
47
245
320
299
305
300
277
273
239
51
48
56
49
44
30
48
272
305
300
278
298
311
303
230
77
36
48
36
39
45
30
235
290
311
321
297
281
305
201
56
42
46
51
37
44
40
231
303
294
307
320
311
310
229
69
37
41
40
41
47
45
247
317
262
291
331
256
298
234
63
52
36
40
34
52
40
229
326
290
302
267
288
300
248
93
45
34
43
42
35
42
219
301
308
296
299
313
260
261
93
51
37
33
44
32
43
208
315
280
295
303
265
268
231
80
45
45
31
48
42
45
189
265
270
260
248
245
260
202
93
59
50
32
43
47
40
173
189
223
236
206
218
252
228
104
64
46
42
45
48
52
155
172
175
163
189
174
178
190
125
61
38
43
41
23
35
140
107
123
128
113
117
92
181
159
62
35
41
46
34
44
170
86
57
46
46
55
53
164
142
81
47
47
33
32
49
166
45
36
31
22
32
27
131
155
58
39
38
45
50
33
172
60
65
55
55
51
56
155
151
66
40
27
38
44
33
164
104
80
118
109
89
109
186
122
59
39
44
29
27
36
158
169
179
147
175
173
158
170
83
58
46
33
29
36
33
187
195
196
235
206
206
190
191
80
49
48
41
39
27
34
181
252
230
237
223
233
265
199
86
49
47
38
34
42
50
224
274
253
293
266
263
269
222
75
47
38
41
32
43
42
209
300
280
276
274
284
279
216
76
48
35
36
35
48
46
236
329
289
311
259
304
296
244
78
50
48
39
36
38
41
236
321
299
300
315
319
332
228
72
38
46
39
34
44
37
234
297
309
327
334
320
279
212
67
31
52
40
54
43
40
253
343
329
336
327
324
326
250
62
44
49
37
48
39
48
263
307
340
301
307
317
304
238
71
49
41
42
44
41
27
287
325
319
314
317
315
302
239
52
52
36
25
37
39
44
289
305
308
344
298
323
292
229
67
52
47
34
40
36
32
246
320
311
300
355
285
328
234
51
41
41
48
49
29
41
274
310
298
302
290
325
272
237
46
37
33
43
34
48
47
237
274
274
295
269
315
331
209
55
43
49
41
35
38
46
268
276
293
317
284
314
299
223
55
56
38
43
35
46
43
226
276
303
277
263
312
287
204
61
42
41
33
61
35
45
260
275
284
285
306
247
301
181
46
47
36
45
33
44
41
258
299
266
287
265
274
291
179
54
50
46
37
33
39
43
213
265
282
274
277
294
268
203
58
49
34
39
49
40
29
226
265
261
236
293
258
285
169
47
46
64
33
35
32
30
218
244
230
272
240
223
264
193
49
49
50
39
39
63
35
203
235
252
239
264
265
237
168
57
46
44
44
51
36
31
209
271
227
257
253
219
255
171
44
40
40
45
29
35
40
219
252
228
230
224
239
234
157
45
51
38
46
35
39
28
202
229
218
239
224
245
227
158
54
36
46
44
38
42
51
191
210
235
223
218
228
229
150
49
48
42
34
39
33
33
188
232
205
204
200
237
204
160
59
41
50
37
58
47
39
173
209
205
212
225
210
223
163
53
40
38
36
39
40
34
183
235
184
211
194
218
204
161
56
42
30
32
47
39
43
183
210
208
184
186
196
204
132
45
40
46
33
33
41
44
155
174
197
178
187
161
184
127
47
40
48
42
43
36
49
179
195
204
179
169
179
179
140
51
44
43
44
41
45
32
159
160
179
186
146
166
175
138
53
33
43
29
37
35
35
160
164
170
176
198
156
167
125
48
38
31
37
53
37
47
136
169
206
167
169
182
165
118
44
35
30
36
38
26
36
148
163
160
159
173
178
154
122
47
34
46
41
44
31
46
148
165
165
163
155
153
159
125
47
40
38
39
29
33
47
146
158
176
143
138
164
151
119
48
35
22
37
47
29
43
150
152
147
188
150
163
150
105
45
37
34
45
41
29
37
148
127
154
162
144
145
134
106
44
49
28
40
35
35
46
147
140
121
140
144
146
177
77
41
39
38
27
44
42
36
20
33
32
22
21
24
29
23
28
26
25
28
24
30
23
24
27
23
23
40
20
24
25
24
18
