#Saved Data from the class pulsed_measurement_logic on 18.11.2022 at 10h56m29s.
#
#Parameters:
#===========
#
#bin width (s): 1.0000000000000000e-08
#record length (s): 1.0030000000000001e-05
#gated counting: False
#Number of laser pulses: 2
#alternating: False
#Controlled variable: [2e-06]
#
#Data:
#=====
#Signal(counts)
1
1
0
1
0
1
0
2
0
1
2
1
0
0
0
1
2
1
1
2
0
1
1
2
22
55
37
44
39
35
38
29
39
39
32
29
40
30
32
25
11
25
16
18
26
20
27
15
22
19
15
24
25
15
21
17
22
18
14
11
14
14
15
15
12
21
11
11
17
9
5
13
17
16
11
14
11
7
8
12
11
14
12
12
11
11
16
8
13
15
12
6
9
12
13
21
13
9
10
16
7
11
6
11
14
13
10
16
9
6
19
10
19
12
17
15
10
7
12
10
13
8
8
11
12
14
19
16
12
14
9
14
12
17
7
10
6
9
14
14
9
9
14
12
19
15
11
12
10
7
16
8
7
10
16
15
12
9
9
8
8
13
11
18
10
13
12
14
15
9
11
11
11
11
9
13
16
11
13
10
13
17
9
6
13
12
11
10
5
11
16
14
13
13
11
8
9
11
10
9
11
13
12
13
13
12
12
15
12
19
9
12
12
7
8
11
11
7
7
11
8
8
8
9
10
8
0
1
1
0
0
1
2
1
0
0
0
1
0
1
1
1
1
1
0
1
2
0
0
0
2
1
2
1
0
2
1
1
0
2
2
1
1
0
1
2
1
0
1
2
0
0
2
2
1
0
0
1
0
0
2
1
0
2
1
1
0
1
0
1
2
1
1
2
1
0
0
1
0
0
2
0
0
1
1
0
1
0
1
1
0
0
3
0
1
1
3
2
1
0
0
2
0
0
0
2
2
0
0
0
1
2
1
1
2
0
4
2
1
1
0
0
0
1
1
1
1
1
2
0
0
0
1
2
1
1
1
1
1
1
0
2
0
0
0
2
0
1
2
1
1
1
1
0
2
1
2
1
1
0
0
1
0
4
0
1
0
1
0
0
0
0
0
1
1
2
0
0
1
1
3
1
1
1
3
0
1
0
0
2
3
1
2
0
2
2
2
0
2
1
1
1
1
0
0
1
24
37
47
47
33
40
34
48
36
31
31
33
40
32
18
31
28
24
25
16
20
26
20
21
10
14
19
10
25
14
17
16
17
12
12
9
20
16
14
19
11
12
12
17
11
22
9
14
11
11
11
10
11
11
12
9
17
15
11
21
11
12
17
12
11
19
12
15
12
12
12
18
9
14
13
13
10
14
18
12
10
17
18
15
14
11
14
9
15
9
16
10
11
13
9
13
16
5
10
8
11
20
10
15
8
10
10
9
8
12
11
14
10
15
11
15
6
16
10
16
10
13
13
16
16
4
14
12
16
12
15
12
8
9
13
7
10
8
15
7
13
16
18
11
14
10
7
12
11
14
11
7
7
10
12
13
13
7
16
11
7
11
17
10
11
9
8
8
15
18
20
14
8
8
15
5
12
8
12
12
5
15
13
14
10
12
5
9
13
14
19
14
10
19
11
11
10
14
5
0
3
1
0
1
3
1
1
1
2
0
1
0
1
1
1
2
0
1
1
1
1
1
1
1
0
3
1
1
3
1
1
0
4
0
1
1
2
0
2
2
0
0
1
2
0
0
0
0
0
3
0
2
0
1
0
2
1
1
2
1
1
1
0
1
1
0
0
0
1
0
0
1
1
0
0
0
0
1
0
0
0
1
0
0
2
2
2
1
2
1
1
0
4
0
1
1
2
0
0
1
2
1
0
0
0
0
2
2
4
2
2
1
0
2
0
1
1
1
1
0
1
0
0
1
2
0
1
1
2
1
1
0
1
4
3
2
1
1
1
2
1
1
1
1
0
1
0
1
0
3
2
0
0
1
0
0
1
2
1
1
1
0
1
0
1
3
0
1
0
2
0
2
0
2
2
0
0
1
2
1
1
0
3
2
0
0
1
0
0
2
1
1
3
1
0
1
0
0
0
1
0
1
0
0
0
1
0
1
1
1
1
2
0
0
1
0
1
1
1
0
0
2
0
0
0
0
0
1
3
3
0
2
1
0
2
0
1
2
1
0
0
3
0
0
0
0
2
0
0
1
1
0
0
2
0
0
1
0
2
0
1
0
0
2
3
1
0
0
0
0
0
1
1
0
2
1
2
0
2
2
1
2
0
2
0
0
1
1
0
3
0
1
1
1
0
1
2
1
0
0
0
2
0
1
0
0
1
0
3
2
2
3
0
1
0
1
0
1
1
0
0
1
0
0
1
1
1
1
2
0
0
1
0
0
0
0
3
1
0
0
3
2
0
1
0
1
1
0
3
2
2
1
1
0
1
3
0
0
1
0
0
0
2
2
1
1
0
0
1
0
2
1
1
2
1
0
1
