#Saved Data from the class pulsed_measurement_logic on 18.11.2022 at 15h55m32s.
#
#Parameters:
#===========
#
#bin width (s): 5.0000000000000001e-09
#record length (s): 8.4875000000000003e-05
#gated counting: False
#Number of laser pulses: 90
#alternating: False
#Controlled variable: [5e-08, 1e-07, 1.5e-07, 2e-07, 2.5e-07, 3e-07, 3.5e-07, 4e-07, 4.5e-07, 5e-07, 5.5e-07, 6e-07, 6.499999999999999e-07, 6.999999999999999e-07, 7.5e-07, 8e-07, 8.499999999999999e-07, 8.999999999999999e-07, 9.5e-07, 1e-06, 1.05e-06, 1.0999999999999998e-06, 1.15e-06, 1.2e-06, 1.2499999999999999e-06, 1.2999999999999998e-06, 1.3499999999999998e-06, 1.4e-06, 1.4499999999999999e-06, 1.4999999999999998e-06]
#
#Data:
#=====
#Signal(counts)
5
4
2
2
0
3
3
2
5
1
1
2
2
3
1
2
12
78
50
58
53
40
34
36
36
29
28
33
31
21
20
23
13
23
20
18
24
21
12
13
12
21
13
15
14
12
8
11
10
10
12
15
12
3
4
9
9
7
9
9
8
4
13
7
13
11
9
16
10
14
10
7
11
9
9
9
7
16
10
6
7
13
3
14
3
11
6
10
10
9
10
8
9
9
10
9
8
8
12
10
10
7
9
5
10
7
10
12
5
11
5
6
13
11
4
8
15
12
14
10
10
4
10
1
10
6
11
12
8
6
5
8
9
8
6
11
8
11
9
11
7
4
7
9
9
6
3
9
6
9
7
11
6
10
12
8
12
7
10
8
12
16
7
5
13
3
8
11
4
7
11
9
6
7
7
6
10
9
9
6
5
11
8
11
7
10
8
7
14
4
12
12
8
6
10
11
7
13
10
11
10
11
8
6
11
6
4
9
11
8
7
8
12
10
7
13
26
134
113
91
85
81
78
68
63
74
53
48
49
50
34
40
40
34
30
23
28
26
27
15
26
22
16
22
25
14
20
20
20
17
17
21
21
14
14
12
8
14
16
8
11
14
16
10
5
10
11
11
12
18
17
7
13
8
16
14
17
15
11
9
9
8
8
12
15
6
5
10
9
5
15
6
8
3
15
2
9
5
15
12
11
19
10
15
6
14
6
9
11
16
10
15
12
10
15
6
12
13
9
9
23
13
12
10
7
15
12
17
13
8
12
12
10
9
12
9
8
7
9
10
11
14
15
13
19
6
10
11
10
9
10
8
15
11
13
7
14
7
17
14
6
14
16
15
11
8
13
7
11
16
10
16
7
12
8
11
11
16
8
11
15
8
4
12
9
6
14
15
12
6
9
7
19
11
13
10
8
12
12
13
12
10
9
11
16
8
15
15
15
10
13
22
14
12
17
9
14
3
2
2
2
1
3
1
1
3
0
2
1
1
25
119
94
78
88
83
59
61
51
48
56
57
44
40
32
37
25
35
27
29
25
24
18
29
14
18
17
17
10
16
18
16
13
14
11
11
11
9
15
11
10
13
11
11
3
13
7
8
5
8
9
11
7
7
7
9
5
11
9
9
12
10
8
5
11
6
4
4
12
10
12
5
6
9
7
9
6
6
5
17
9
10
12
10
7
10
11
7
5
7
9
6
11
8
10
10
11
7
10
11
6
11
18
14
9
9
10
16
7
8
5
9
6
9
9
8
7
7
9
7
9
12
13
6
6
7
15
8
8
6
8
13
8
7
8
8
12
7
9
8
8
11
6
11
8
6
6
5
5
12
9
10
6
8
13
6
8
13
4
6
12
9
5
9
13
11
4
14
12
9
13
9
5
6
7
10
13
11
3
11
15
11
11
8
18
7
9
7
1
8
7
10
10
6
6
6
5
9
6
14
36
120
79
71
87
93
79
64
55
49
51
53
58
44
38
40
41
43
30
45
21
16
36
34
30
26
22
15
21
21
23
13
12
17
15
16
20
12
22
16
12
15
14
10
10
12
15
11
9
12
10
19
10
8
10
8
8
18
6
4
10
10
15
14
13
11
9
13
9
8
6
22
14
11
13
13
11
14
10
13
10
14
10
19
6
12
9
12
12
14
13
12
19
10
10
8
9
10
12
15
13
11
15
7
13
13
8
13
14
10
11
11
18
12
15
11
13
14
11
13
14
8
9
13
13
11
11
8
18
8
13
12
9
6
10
16
13
7
8
11
8
13
8
11
7
12
9
11
14
13
7
14
7
5
20
14
11
14
19
13
18
7
13
17
4
9
15
17
7
13
10
14
9
11
7
8
4
11
12
13
12
16
8
11
8
10
5
9
7
11
11
12
20
11
13
14
10
11
13
11
3
4
2
1
2
5
5
1
4
2
4
1
3
3
1
3
0
3
4
2
4
3
1
4
31
123
89
78
71
76
79
61
64
43
37
43
27
36
31
26
36
23
19
29
25
16
17
15
16
12
15
15
15
8
15
17
15
9
13
12
8
12
6
15
13
16
8
12
12
3
8
9
6
12
10
14
11
5
8
6
11
8
8
11
6
7
7
11
8
12
4
12
8
8
5
10
9
8
14
14
13
3
11
4
13
9
6
10
7
7
11
6
3
8
13
14
10
7
11
7
10
8
9
4
10
10
11
11
9
9
6
9
11
8
8
8
6
12
6
13
7
10
4
5
11
7
13
11
6
9
14
10
12
13
8
6
4
9
8
10
10
8
8
3
12
9
9
10
8
10
9
9
6
7
4
6
4
5
12
6
13
9
10
9
7
12
13
7
7
11
10
9
7
18
8
7
11
8
10
12
4
10
6
10
14
12
9
9
2
8
8
7
8
8
7
9
8
15
12
10
7
11
6
16
32
143
106
94
92
58
71
92
57
63
58
69
48
57
45
33
36
38
30
33
27
32
22
26
27
15
21
28
11
24
13
25
28
17
17
14
11
11
13
14
11
10
16
21
18
13
6
17
9
11
17
6
12
14
13
13
15
10
11
14
10
17
10
11
9
8
12
9
12
16
12
11
12
8
8
13
10
10
7
10
14
12
10
9
13
10
14
9
8
10
11
15
12
14
14
13
17
15
8
8
16
14
11
10
14
15
11
9
16
13
16
16
10
10
12
13
12
15
10
11
15
11
12
11
10
12
7
13
11
13
11
8
6
17
13
10
11
11
14
11
9
14
9
14
9
10
12
11
11
14
12
5
13
13
13
11
10
8
10
12
10
11
11
9
7
17
13
12
13
10
16
5
16
11
12
11
11
8
18
11
10
13
11
14
9
9
7
10
15
10
9
13
10
12
8
10
9
12
10
7
11
8
1
4
4
3
0
2
5
1
5
6
6
0
0
3
2
4
4
3
1
3
1
4
2
3
0
4
2
4
2
3
4
3
27
106
74
79
82
76
74
49
39
57
45
59
39
48
47
30
24
37
28
27
20
18
21
17
21
22
18
19
15
18
14
5
18
15
12
11
12
15
17
8
14
14
9
10
13
9
15
8
13
7
6
10
6
10
7
4
13
13
15
10
12
9
7
10
7
7
14
14
10
10
8
7
5
10
14
11
12
10
10
6
11
9
7
9
10
14
8
14
9
8
11
6
11
5
9
9
10
7
14
5
9
8
7
4
6
10
10
3
13
3
8
13
12
18
3
7
8
7
9
11
12
9
6
6
8
5
9
14
10
7
13
8
12
13
8
14
9
7
10
6
9
13
11
6
4
7
12
9
14
8
10
10
14
10
7
9
7
9
9
12
9
11
6
9
4
12
9
5
6
13
6
11
9
8
7
13
9
7
5
5
8
10
7
9
12
10
4
14
10
6
3
10
7
7
12
5
9
7
5
9
28
129
91
100
98
76
63
67
70
51
48
46
44
43
37
44
44
43
44
29
22
40
35
18
27
27
25
17
10
19
19
18
11
18
26
20
15
17
14
17
14
16
13
9
10
9
15
18
15
12
12
11
9
10
17
13
8
13
13
14
11
7
16
14
13
15
15
11
12
9
14
11
4
15
16
8
11
7
9
10
11
8
10
11
8
14
14
4
8
11
12
12
10
13
10
10
9
11
14
15
8
15
13
7
8
12
11
7
11
17
16
9
10
10
12
11
8
10
8
11
8
5
11
14
15
12
10
13
13
10
11
19
12
10
13
9
13
5
11
8
8
13
7
8
17
11
14
12
14
9
8
9
13
11
11
11
12
5
12
13
10
8
12
12
10
9
8
10
14
14
11
11
8
10
10
9
18
4
14
14
6
18
8
18
17
15
13
15
8
8
11
11
12
8
9
12
17
11
11
11
8
4
3
3
2
4
1
0
3
4
4
4
4
1
4
5
1
0
3
6
4
3
3
5
4
4
0
4
1
1
2
3
2
3
3
3
2
0
0
5
1
1
3
4
31
97
80
82
77
71
63
59
48
46
51
48
43
30
34
29
44
29
23
20
17
18
26
21
15
14
16
15
15
20
14
12
9
11
12
7
13
11
15
15
13
11
8
9
8
7
5
12
5
10
7
11
13
8
8
10
8
8
10
8
8
7
11
10
5
13
11
8
11
8
8
7
12
9
8
4
6
8
7
13
10
15
11
7
7
8
10
8
13
5
5
16
8
8
9
9
7
8
6
8
3
12
12
10
8
8
10
12
15
8
10
11
7
10
4
12
12
11
7
7
9
6
7
5
7
12
9
7
5
5
10
6
8
15
8
10
8
15
14
11
8
1
7
7
13
8
14
10
11
6
6
12
15
5
8
9
8
13
5
9
6
12
7
8
10
8
8
13
7
9
7
11
14
6
10
12
7
11
5
12
8
9
10
10
9
6
8
10
6
9
15
14
9
10
9
7
9
5
15
9
41
146
113
96
94
84
58
69
74
61
55
57
38
47
43
28
31
41
43
25
25
33
32
22
32
24
19
21
16
20
24
19
20
24
16
13
13
19
15
23
19
17
9
12
12
16
15
15
12
16
11
11
8
6
9
8
10
19
7
9
6
16
8
8
6
16
19
12
10
8
9
12
13
15
10
8
14
10
10
13
15
17
13
21
13
17
14
12
10
14
11
7
8
13
9
13
12
15
17
12
15
7
11
13
16
13
16
11
12
19
10
13
12
8
11
15
13
14
14
9
12
10
8
17
9
8
6
10
9
10
7
11
8
9
7
13
9
16
7
17
14
16
9
17
7
14
13
9
15
8
11
11
10
9
7
8
10
12
14
10
15
16
14
15
11
12
14
15
9
16
10
12
11
12
8
5
15
14
13
13
11
10
13
10
13
12
8
12
12
11
10
9
15
10
12
12
17
11
11
22
9
8
5
3
3
6
1
3
1
2
1
2
3
3
2
1
0
1
2
3
2
3
2
3
5
2
0
3
3
4
1
4
4
2
6
2
2
5
3
2
1
5
3
2
3
1
5
4
5
3
4
2
3
1
32
109
77
65
84
57
62
59
48
45
34
43
35
40
38
27
21
30
23
27
24
31
9
23
16
11
15
16
18
16
13
18
13
10
10
11
8
7
10
14
16
10
13
10
5
14
14
14
13
18
8
9
6
13
8
4
8
9
7
9
7
8
9
8
11
9
10
13
7
6
7
14
12
7
8
8
17
11
12
2
9
7
7
16
9
9
7
12
16
6
8
13
10
6
7
12
12
6
10
14
9
9
10
6
8
10
3
8
12
6
10
8
9
9
11
12
8
4
8
14
11
6
8
10
6
13
9
6
9
5
11
10
9
11
7
7
11
6
9
8
13
10
8
6
12
12
8
9
7
11
11
2
10
9
14
4
15
10
8
7
16
11
11
7
12
9
8
9
13
12
8
7
8
8
10
17
9
7
10
10
5
12
11
8
14
8
11
8
11
7
10
6
8
9
10
8
8
6
7
5
33
116
112
86
105
71
72
72
65
64
56
51
46
46
38
34
48
41
33
37
26
32
18
30
25
27
28
24
22
16
15
18
15
16
11
11
13
24
17
19
19
16
7
7
15
18
13
10
14
18
10
8
12
9
10
12
10
11
16
20
9
8
10
10
13
9
13
6
11
7
14
16
8
8
10
14
10
11
16
18
12
8
15
12
10
14
12
10
6
14
18
9
10
16
11
10
6
10
7
13
14
16
9
6
17
10
9
13
4
16
16
12
12
11
10
7
4
9
8
13
9
9
11
4
13
14
6
16
11
13
15
11
19
13
14
14
8
15
11
9
12
15
15
8
15
9
8
16
11
12
8
15
15
12
7
10
18
9
11
9
12
12
11
4
9
7
12
13
6
7
10
12
10
11
8
12
13
11
11
12
9
12
8
13
14
10
17
22
13
13
9
9
8
10
9
8
14
8
12
14
5
2
2
1
1
1
9
5
5
3
4
1
3
2
4
1
1
1
1
3
2
2
4
0
0
2
5
0
5
2
1
3
0
1
1
4
1
1
6
2
2
1
4
1
1
1
1
3
4
4
2
5
2
2
4
2
2
5
3
4
1
0
2
1
25
90
84
89
67
59
64
48
44
41
37
46
41
24
28
31
25
20
19
26
19
30
14
18
19
18
14
22
12
18
10
12
12
14
13
6
12
14
10
15
6
10
7
8
9
14
5
8
7
5
8
8
9
11
8
12
6
9
6
13
8
9
11
8
13
6
5
7
5
7
9
10
10
9
16
10
6
14
9
7
8
2
9
6
5
6
9
16
13
3
7
8
11
4
9
14
10
19
11
9
5
5
8
3
4
5
7
5
9
10
8
8
8
6
13
10
15
9
11
2
9
8
11
15
10
13
7
5
9
5
3
12
9
8
9
5
13
9
9
12
10
8
11
11
11
7
11
11
5
8
7
5
7
8
3
11
5
4
6
10
6
9
4
12
10
7
10
6
5
11
12
9
9
7
10
6
12
11
13
6
7
13
5
5
8
9
8
6
16
17
4
7
11
8
6
8
11
11
9
7
33
140
94
89
89
74
92
74
68
68
55
51
54
57
41
43
33
32
30
38
25
27
29
30
32
27
24
20
24
24
17
20
14
20
16
15
17
14
18
9
16
13
9
12
11
13
10
13
18
10
17
8
10
16
14
16
11
12
6
11
15
8
8
8
13
15
7
11
7
8
12
5
12
10
14
11
12
17
15
9
12
15
15
12
11
12
12
15
13
12
12
11
15
11
7
9
8
9
13
5
9
13
12
11
11
9
10
10
10
10
8
15
11
15
10
10
12
7
7
11
10
9
9
8
10
12
9
12
8
7
8
6
9
11
11
10
11
15
9
12
9
8
10
9
10
4
17
12
8
13
4
8
11
9
11
11
10
11
14
9
15
8
10
21
9
11
13
9
15
10
10
15
9
8
10
18
13
9
11
10
9
5
8
10
7
11
12
9
7
10
5
11
12
7
14
8
12
10
12
13
8
1
2
2
2
3
2
3
5
1
2
2
5
3
2
2
4
2
2
2
2
4
4
4
1
3
2
0
0
3
5
5
3
4
4
2
4
4
7
1
3
2
3
2
1
3
4
5
2
0
2
4
3
4
3
1
5
3
4
2
1
1
1
6
7
5
2
5
2
1
1
2
6
3
16
90
71
79
61
54
59
54
40
38
42
48
28
28
27
37
19
25
15
26
11
14
21
26
16
12
21
11
17
19
10
8
11
13
14
12
11
17
9
15
12
13
11
10
11
4
9
13
7
9
11
6
6
14
11
7
9
16
5
6
9
10
9
6
15
5
5
9
12
6
9
6
12
9
6
11
15
2
7
9
12
9
4
7
6
9
16
6
7
12
8
6
7
12
11
11
6
8
10
19
11
5
10
7
5
8
10
6
11
14
10
9
9
15
8
3
8
6
10
6
12
8
4
6
13
4
5
14
6
7
12
13
7
2
13
7
6
9
6
9
10
4
9
10
7
6
5
10
7
7
3
7
11
6
11
6
6
9
6
13
11
7
12
10
12
9
12
12
12
2
12
9
7
8
5
5
10
10
9
4
6
6
6
11
6
10
9
8
11
16
11
8
7
10
1
7
8
8
12
4
37
127
94
117
88
89
79
82
82
63
63
47
49
41
49
46
47
42
31
30
25
28
31
22
34
28
24
23
25
17
18
15
24
16
20
14
15
15
10
16
13
6
13
15
11
8
14
13
9
12
12
16
10
7
8
11
11
9
9
11
17
13
4
18
12
8
11
18
10
12
8
11
13
9
12
10
7
11
6
6
11
9
10
12
17
14
14
14
9
10
8
13
11
7
10
6
10
8
10
9
12
6
8
12
7
9
6
8
16
11
7
8
5
12
12
7
12
14
15
13
10
9
14
9
10
8
15
8
7
15
10
9
17
13
18
10
5
9
4
7
13
13
9
13
15
7
10
10
6
8
14
9
6
15
5
5
14
12
10
15
13
17
11
7
12
14
10
11
17
7
8
6
8
12
13
8
12
10
14
9
14
6
12
14
10
10
13
17
10
8
5
12
8
14
8
7
10
6
4
6
5
4
5
3
3
1
4
2
2
2
1
2
3
3
0
4
3
3
2
1
7
6
5
3
6
4
6
6
1
3
4
6
0
1
2
3
4
3
1
2
2
4
4
7
4
2
1
2
1
3
0
2
4
2
2
5
1
4
2
7
3
1
4
1
1
3
0
3
3
3
7
1
2
4
5
1
2
4
3
1
2
1
4
2
30
78
84
79
65
50
60
44
47
39
47
36
32
32
34
25
25
26
26
29
21
19
19
13
25
12
17
20
18
14
5
15
18
14
14
9
13
10
13
13
7
6
15
10
10
13
11
4
5
8
12
6
8
3
11
11
10
1
8
3
3
8
12
8
10
18
8
8
9
8
5
12
6
8
8
10
12
11
10
6
7
9
5
7
7
9
8
10
9
8
10
9
7
10
5
5
10
21
9
4
5
6
9
8
9
11
11
6
6
8
9
7
3
7
7
13
10
10
10
15
11
3
12
13
8
11
13
11
13
10
14
11
8
10
8
6
10
6
13
4
8
10
5
10
6
5
9
11
10
11
8
7
5
7
8
13
6
8
8
10
10
6
9
9
10
6
8
10
9
7
8
9
12
11
11
11
6
13
8
10
12
6
7
8
11
7
10
10
6
11
7
8
9
12
7
13
9
7
7
10
29
118
80
96
83
89
71
79
71
58
45
66
44
58
46
45
37
40
32
36
27
21
26
27
20
23
25
24
19
11
21
11
25
19
18
17
22
10
9
7
9
15
15
9
19
15
17
17
17
16
9
17
14
6
18
11
23
14
15
19
10
9
7
10
11
4
19
12
11
11
10
12
13
10
7
10
19
17
22
13
13
12
11
13
8
11
5
9
10
15
7
9
16
10
8
11
15
14
11
8
7
10
8
10
11
16
16
8
12
19
10
4
7
3
11
7
12
11
11
14
6
21
13
7
8
7
10
13
7
12
10
14
6
11
5
10
14
5
3
8
5
9
12
12
7
7
10
5
7
7
12
13
14
10
10
7
11
12
7
16
18
7
12
12
13
7
11
9
13
9
11
8
10
15
9
14
12
10
7
9
9
8
15
15
12
13
17
7
9
14
8
10
5
13
10
14
9
14
7
8
8
5
4
4
3
1
6
6
3
3
6
3
1
3
2
2
4
4
3
2
2
2
5
1
2
3
2
4
5
3
4
2
1
3
0
3
1
2
5
5
2
5
1
4
4
4
0
2
3
5
4
3
3
4
2
3
3
2
1
2
5
2
2
2
2
4
0
4
6
4
3
6
0
2
2
2
4
5
2
3
2
0
6
4
2
2
6
3
5
3
2
1
4
0
15
89
73
75
74
67
52
45
50
46
38
28
33
24
31
21
26
20
19
26
23
27
11
13
12
13
12
12
5
17
17
15
10
12
12
7
12
11
12
10
10
11
19
6
10
10
7
15
8
7
10
7
9
10
6
12
7
12
8
10
7
8
5
7
12
7
6
10
10
6
11
6
12
16
11
11
11
11
5
4
10
14
15
12
14
7
11
8
6
11
9
8
11
14
5
11
10
12
9
7
5
8
11
10
13
7
11
10
7
9
8
13
8
5
17
8
7
10
11
12
12
11
5
10
12
17
11
10
9
5
7
8
12
11
7
7
7
9
4
4
8
9
7
10
6
6
11
7
3
13
11
9
9
8
14
9
14
8
8
14
13
8
8
8
7
15
8
13
6
6
8
9
9
13
11
9
11
13
11
9
12
2
7
11
4
10
8
13
7
9
6
9
12
5
11
9
11
13
14
7
34
125
80
103
100
82
82
65
70
56
59
45
44
42
48
40
39
33
30
27
31
23
20
21
19
16
18
26
22
27
22
23
21
12
19
18
15
7
11
7
17
16
8
13
15
26
9
12
11
12
12
13
8
14
13
7
13
9
10
11
6
7
7
7
19
4
7
5
11
7
12
15
14
7
15
10
10
7
11
8
7
9
12
12
19
10
7
12
16
15
15
9
10
17
11
11
13
12
16
11
9
15
10
15
6
11
13
12
14
8
7
15
12
12
3
6
11
9
10
8
6
7
7
11
12
4
12
13
11
5
6
11
11
12
9
11
6
8
11
8
12
6
7
11
6
8
13
13
8
18
15
16
13
15
13
16
12
9
11
17
14
8
7
18
7
4
12
16
6
7
9
11
6
10
10
10
10
12
19
7
9
7
9
11
11
16
18
13
12
13
15
14
9
12
19
6
8
11
11
14
7
6
2
0
1
1
5
2
2
0
2
2
5
4
3
2
3
3
0
3
1
1
4
6
0
4
3
5
3
1
3
1
3
2
0
0
6
4
4
3
4
2
1
3
3
2
0
0
4
2
2
1
0
4
3
2
4
5
3
3
4
2
3
2
7
0
1
3
2
4
3
5
4
4
1
0
5
4
2
3
5
1
5
2
1
4
3
1
4
1
5
5
4
2
5
3
1
1
2
3
4
2
3
3
22
108
75
51
69
47
60
50
43
43
39
26
57
35
26
33
29
21
24
27
18
17
24
21
20
16
15
13
17
12
12
10
13
13
10
6
14
17
15
9
9
10
12
11
12
7
10
15
11
8
8
9
8
9
4
8
10
14
10
12
7
5
9
6
7
8
8
6
5
10
10
10
7
8
11
10
13
13
14
10
7
11
9
11
12
10
14
8
8
8
7
5
11
10
7
8
5
8
11
4
9
5
9
9
7
10
12
9
13
6
9
8
5
12
7
9
14
4
10
9
11
11
7
9
4
11
8
8
7
12
8
6
13
9
5
9
7
10
7
9
8
9
11
11
11
6
7
4
6
7
8
8
11
3
6
12
5
11
11
8
4
12
8
5
12
13
11
9
14
6
9
13
6
10
14
9
15
6
6
4
6
10
6
7
9
6
7
7
6
7
10
10
11
11
11
3
12
14
8
10
44
159
99
108
94
80
74
56
58
70
49
64
43
38
43
38
43
36
45
37
32
25
21
35
25
28
19
23
25
18
26
11
24
17
17
13
26
15
11
20
15
15
8
15
16
11
8
13
18
15
13
8
8
14
10
10
14
8
7
6
8
12
16
12
11
9
11
11
14
11
10
15
10
9
13
10
17
8
15
11
14
9
11
7
10
8
11
15
11
7
9
6
9
7
13
12
10
7
10
9
6
11
13
12
14
17
7
11
5
7
9
11
9
10
8
17
12
9
5
11
9
9
9
13
9
13
11
6
6
13
17
14
12
9
9
12
10
9
5
8
7
10
14
12
10
10
11
2
19
11
14
8
20
9
15
7
12
3
11
12
10
16
11
8
12
7
8
15
12
7
13
8
9
12
10
11
17
10
10
17
6
4
16
9
6
4
9
16
11
11
12
4
9
12
8
17
9
15
16
13
8
2
1
2
2
3
3
4
2
1
2
1
4
2
3
2
5
1
4
2
2
3
0
1
1
2
5
5
1
2
2
1
4
3
3
3
1
0
5
2
3
5
3
1
2
4
2
3
6
4
1
5
3
2
4
4
4
2
3
1
1
2
1
0
4
0
1
2
1
2
1
4
3
1
5
3
3
3
4
7
2
3
3
2
3
1
2
4
2
4
1
5
4
3
2
3
3
1
0
4
4
3
2
2
1
4
4
1
3
1
1
2
2
3
15
95
64
64
48
50
49
51
44
34
41
38
31
32
30
24
30
29
27
22
16
23
18
13
17
11
16
11
15
12
10
9
9
14
16
5
11
7
7
11
9
12
4
8
6
11
9
13
4
10
7
9
9
6
11
7
10
6
6
11
3
9
14
8
6
6
12
8
6
12
11
9
8
15
9
11
6
11
10
6
9
14
7
8
5
11
12
6
7
3
4
9
3
12
14
7
10
5
8
8
11
7
7
11
8
6
11
8
11
9
6
5
7
9
5
10
5
6
8
8
10
10
6
10
6
8
6
10
10
9
11
15
12
5
9
8
11
11
5
9
8
7
14
9
6
6
9
7
13
9
7
6
11
12
12
3
7
14
13
7
9
7
9
12
12
7
14
8
12
6
9
5
10
8
7
9
9
7
11
11
9
6
6
7
12
7
12
10
12
5
9
10
16
10
7
7
10
10
7
9
28
131
125
103
84
83
78
84
53
61
51
68
40
58
50
34
34
43
32
36
27
22
31
24
38
26
29
24
14
20
17
18
11
15
12
19
12
13
20
15
10
19
14
18
11
17
15
11
7
8
16
5
10
8
18
10
12
16
10
8
23
9
9
8
6
12
11
13
16
7
14
9
11
8
15
10
14
10
10
13
13
8
13
9
11
12
7
10
8
6
17
9
8
14
10
9
9
10
15
7
7
7
13
15
8
13
13
9
9
11
11
8
8
13
8
11
12
14
7
10
11
11
12
12
4
11
13
8
8
12
13
17
12
11
6
9
10
18
14
15
9
7
9
6
12
13
10
11
12
12
12
14
7
9
13
8
10
13
14
9
5
11
12
10
5
4
6
10
15
11
18
9
14
12
11
8
14
11
8
15
15
10
13
14
20
14
13
10
8
13
13
11
11
15
9
9
10
12
12
9
16
2
0
5
2
1
1
3
3
1
2
1
1
3
5
4
1
2
2
1
3
2
2
1
4
1
3
4
2
6
7
3
2
4
3
3
4
8
1
2
3
3
5
3
5
1
4
2
2
3
3
6
2
1
6
7
1
2
3
2
1
3
3
2
4
5
1
2
4
2
1
4
2
1
2
1
1
1
2
3
1
1
7
2
3
7
6
4
5
1
3
3
3
6
3
3
5
3
5
4
5
4
5
0
3
3
2
1
3
4
1
2
3
5
2
4
4
2
1
2
1
1
3
3
21
87
85
56
65
51
43
43
39
48
48
40
32
31
22
28
22
14
16
19
20
26
21
12
18
21
12
14
23
18
16
10
11
15
10
7
10
11
11
12
13
8
7
6
10
3
13
8
7
9
10
7
13
6
8
12
5
16
10
8
5
10
7
6
9
7
8
5
11
12
11
8
10
8
11
3
12
9
7
5
10
14
7
8
7
7
7
8
8
9
3
8
11
4
9
9
4
7
10
12
14
9
13
7
5
9
5
11
14
7
6
8
10
11
9
10
12
13
7
9
7
5
9
9
10
13
9
9
5
11
10
11
7
10
10
6
5
2
13
4
9
11
6
6
9
13
10
10
10
9
10
11
11
9
8
7
5
3
14
11
9
13
12
13
12
13
7
6
6
9
3
10
9
14
17
13
9
7
10
7
5
12
8
12
11
10
7
7
10
7
5
8
4
10
11
9
13
11
5
7
39
129
103
99
80
73
86
67
77
61
46
49
39
36
37
45
34
29
31
26
33
20
24
42
25
20
26
25
18
18
17
12
10
14
10
14
13
15
11
14
20
13
7
12
11
19
18
13
13
14
9
15
10
13
9
13
9
17
9
8
13
14
12
8
9
8
17
14
11
13
15
14
14
12
11
14
16
14
9
10
13
10
10
15
12
8
11
17
12
7
15
12
9
13
8
11
12
9
10
9
10
10
4
10
10
6
10
16
13
8
13
9
11
11
9
8
12
10
7
14
8
10
5
10
14
7
14
8
7
20
10
10
9
9
8
9
12
17
8
16
10
8
12
9
9
9
12
9
11
13
15
13
7
5
13
12
8
14
7
7
15
7
10
6
19
13
7
9
5
10
13
14
9
14
11
10
11
9
14
5
9
11
12
8
11
13
19
9
10
8
10
18
12
12
6
6
6
20
7
10
6
2
9
0
4
1
2
2
1
3
2
6
4
1
3
4
0
4
2
6
0
3
3
1
3
3
2
2
2
4
1
2
5
5
4
4
1
2
4
1
1
7
1
2
3
3
2
3
4
4
2
1
2
2
9
3
5
4
5
2
3
5
3
2
3
2
0
1
1
5
6
1
1
1
2
4
4
4
3
2
4
5
1
3
1
0
3
3
3
0
1
1
2
3
2
2
2
5
7
0
2
4
6
3
1
1
3
3
3
3
4
3
3
3
1
0
4
3
4
8
1
3
1
3
5
3
1
1
1
2
1
7
5
1
19
79
81
63
75
46
49
45
54
45
46
27
32
27
30
33
29
26
19
21
14
19
21
16
9
19
15
11
14
14
8
17
9
9
10
13
14
10
5
9
8
12
9
11
11
6
10
15
7
13
10
6
10
6
7
9
5
11
10
9
13
9
11
10
11
5
8
4
6
5
8
5
11
14
7
8
11
9
9
14
6
6
7
6
6
7
10
7
10
15
7
9
6
9
2
9
5
11
16
10
13
5
8
10
6
10
6
13
12
10
12
14
13
5
9
9
10
3
6
7
10
15
13
9
7
5
11
9
10
8
7
12
11
8
12
6
13
8
6
8
12
10
10
5
6
6
6
9
9
8
7
3
6
6
11
12
7
5
6
7
4
15
9
6
7
7
12
9
7
12
9
8
9
16
5
8
9
9
7
9
3
11
4
14
9
8
5
9
14
9
18
10
9
11
8
12
10
6
10
9
41
143
99
106
85
101
79
74
68
55
49
55
49
42
39
40
39
32
33
32
28
20
29
35
15
25
21
18
20
18
23
15
19
15
25
13
11
11
13
15
18
13
9
15
14
11
16
15
16
14
10
12
14
15
13
16
19
11
8
13
8
8
9
12
16
14
11
10
7
14
12
12
11
10
15
15
20
9
13
6
7
11
16
8
6
14
12
12
12
12
12
10
7
15
17
10
17
3
16
13
5
10
12
11
11
14
8
9
19
19
11
11
14
9
8
18
10
11
11
8
11
11
11
7
16
10
9
10
8
23
9
10
7
10
12
12
6
16
11
8
15
14
6
11
15
10
14
10
9
12
18
13
17
17
8
12
6
7
14
10
10
11
8
10
7
16
10
11
5
11
8
14
14
10
13
10
8
11
11
7
15
12
9
12
8
17
14
15
18
10
9
15
8
13
8
7
9
11
12
11
10
3
5
3
2
4
4
1
1
2
0
5
2
2
2
5
1
3
3
4
2
1
2
6
2
3
0
1
2
1
7
4
3
1
4
6
0
1
1
3
6
2
4
3
3
1
2
2
3
2
2
1
2
3
0
2
3
5
1
1
1
0
3
4
2
6
5
9
1
5
4
2
0
2
5
4
4
2
1
1
3
3
1
4
3
3
2
0
1
6
1
4
2
3
1
3
3
2
2
1
5
5
2
1
4
3
3
1
3
0
2
7
2
3
4
3
4
1
5
1
6
1
1
3
1
3
2
3
3
3
5
4
5
3
2
2
2
3
4
2
2
2
5
1
25
77
67
62
50
47
57
39
36
32
39
30
38
24
26
31
23
16
20
28
13
19
18
14
10
13
16
9
14
16
10
14
7
20
11
12
12
7
11
13
18
8
8
15
12
7
13
6
11
8
13
13
6
7
14
13
12
15
13
13
5
11
11
13
9
12
8
12
8
12
10
9
8
21
5
8
16
12
7
12
11
12
10
11
12
12
9
8
9
14
3
10
8
8
6
8
10
13
9
8
5
7
13
9
5
5
9
9
7
11
6
6
9
16
13
7
12
7
11
13
9
5
9
8
10
12
6
9
10
5
7
9
9
3
13
8
6
7
14
6
16
9
3
9
17
8
5
12
8
7
20
9
3
8
12
5
7
8
6
12
8
7
9
7
7
14
6
6
5
7
7
11
10
4
4
5
10
9
5
12
9
11
10
12
12
4
4
10
17
11
4
13
7
4
11
9
5
7
5
10
39
128
92
95
76
70
71
70
57
82
52
61
49
40
44
35
47
29
44
31
37
27
29
26
21
32
23
17
18
20
14
26
24
24
21
11
15
14
19
21
13
17
14
17
18
11
12
13
23
14
13
15
15
9
16
8
11
12
9
14
7
11
6
13
9
22
9
16
7
17
9
4
10
15
13
13
6
9
10
5
17
12
15
14
8
8
7
10
10
14
13
7
10
10
9
15
15
9
14
12
7
8
11
7
7
7
10
13
11
17
7
11
7
9
9
7
12
12
9
18
13
10
12
9
7
18
9
11
8
8
12
13
12
12
4
5
11
9
13
12
11
10
14
13
9
6
12
9
11
11
3
6
12
9
6
12
13
6
5
8
14
9
19
10
15
12
15
11
9
13
8
12
13
13
9
13
12
14
8
19
7
12
10
15
6
9
9
10
6
16
15
18
12
11
11
7
5
13
11
9
12
9
6
6
5
2
4
1
3
4
4
5
2
3
1
1
2
1
1
4
1
2
0
2
0
1
2
3
1
1
4
2
6
3
3
2
0
3
0
0
3
3
4
5
2
2
6
5
3
5
1
4
3
2
4
0
2
3
6
3
2
1
1
3
2
2
5
3
0
5
0
1
1
2
2
3
3
4
2
4
5
3
1
2
2
1
5
3
2
5
4
3
3
1
3
3
1
5
4
1
3
3
5
1
3
6
3
3
4
6
2
4
2
4
4
2
3
4
4
2
3
3
5
5
3
4
3
2
2
2
4
3
5
4
2
0
1
2
2
4
3
2
2
2
5
2
2
4
5
0
2
6
2
4
25
102
83
64
46
50
52
45
49
48
32
26
24
28
24
27
28
18
27
17
18
17
16
15
15
10
11
12
11
7
13
24
13
5
11
8
9
12
14
9
9
8
14
9
7
11
14
8
8
9
9
8
14
6
9
5
9
8
8
10
6
9
9
13
10
9
6
13
12
7
10
7
7
11
8
9
10
12
6
10
8
9
6
11
9
12
4
8
7
6
8
9
9
7
8
7
9
8
8
6
11
8
11
9
9
5
6
7
5
6
7
6
5
5
13
8
7
10
11
2
10
9
9
8
10
7
11
6
11
9
7
12
10
4
12
7
7
12
9
7
4
6
11
9
8
9
6
10
4
10
9
8
10
4
7
10
13
6
10
10
5
11
6
13
7
4
11
3
11
8
10
8
10
7
12
4
5
9
10
11
12
12
13
7
4
11
6
9
11
10
5
7
11
6
12
7
4
5
9
11
29
134
103
95
80
86
88
70
72
63
75
44
44
44
44
44
48
29
29
27
30
45
24
30
25
21
21
23
29
18
16
10
21
23
15
19
10
11
16
16
16
12
15
18
14
12
10
12
15
11
9
11
12
14
17
12
14
18
7
12
16
10
11
15
13
5
10
10
10
14
10
9
6
12
18
20
14
11
10
10
10
12
13
16
13
10
11
7
11
12
14
13
7
13
9
8
10
10
12
12
8
15
8
7
17
14
14
6
6
6
11
3
11
6
9
12
16
9
7
11
11
14
11
8
12
10
12
15
12
19
13
7
14
10
15
10
10
12
17
11
10
11
7
9
11
9
7
7
10
6
13
8
12
8
17
11
19
12
11
12
11
14
7
11
7
14
14
10
9
9
10
18
9
7
11
13
17
11
11
10
5
10
8
10
10
5
13
9
10
11
11
9
10
7
7
9
8
6
7
10
8
2
4
7
0
2
1
5
2
4
2
1
2
1
5
2
1
3
0
3
2
2
4
0
2
4
1
6
2
4
5
2
5
0
5
1
1
2
2
2
3
1
3
3
2
2
3
2
4
2
3
1
2
2
3
3
2
2
3
3
4
3
3
0
3
1
5
2
1
4
1
2
1
5
1
6
3
0
2
3
4
4
3
3
4
0
3
2
4
4
2
7
3
4
1
1
3
2
1
3
1
0
4
0
4
3
5
1
4
2
1
1
3
4
3
3
4
3
4
4
2
3
4
2
3
2
1
3
2
3
4
2
3
1
3
4
2
4
5
5
2
2
3
5
3
6
1
3
4
3
2
0
5
3
2
3
8
5
4
6
3
1
4
1
21
84
68
68
55
54
42
49
46
28
29
37
28
13
24
22
24
25
16
15
22
15
13
22
14
13
15
13
7
16
13
8
9
7
8
8
8
13
12
12
10
6
7
10
11
7
9
6
9
3
8
9
3
13
7
5
10
9
12
7
9
7
5
8
13
9
5
6
8
5
4
9
13
7
9
14
19
12
9
8
11
9
12
9
12
5
12
12
5
3
7
11
7
8
9
9
15
4
3
13
11
8
12
11
7
5
4
7
8
7
10
8
10
5
7
5
9
10
7
15
5
15
12
10
10
6
7
9
11
14
14
17
8
9
11
2
5
15
10
11
6
12
5
5
7
4
7
11
8
12
10
10
11
6
9
8
8
11
11
3
12
10
9
6
7
16
8
10
6
4
9
12
8
6
4
10
7
8
8
15
2
11
9
13
11
9
5
8
8
10
7
7
9
9
5
9
10
8
14
7
34
125
96
82
83
91
56
79
62
59
34
73
50
40
44
29
29
43
34
28
26
26
21
33
26
24
23
23
17
20
19
14
14
14
16
7
15
17
9
14
8
10
16
16
14
21
13
8
7
10
15
13
10
6
15
12
16
12
9
7
10
10
15
5
7
6
7
12
16
13
12
11
14
13
13
18
6
16
9
16
13
10
10
11
12
9
9
15
5
7
7
13
9
12
14
13
8
12
9
8
17
15
10
18
8
12
7
9
13
11
14
8
12
12
13
9
13
4
10
6
10
15
9
10
11
5
13
14
14
9
14
9
6
7
11
12
14
7
7
18
13
10
10
16
11
10
8
11
8
18
10
12
8
16
5
15
16
9
13
9
8
11
15
11
10
9
15
14
10
13
15
11
7
17
12
10
12
10
7
10
12
13
11
9
15
12
14
6
13
9
9
6
6
13
14
9
13
8
7
9
11
6
7
4
4
1
5
4
4
3
2
3
2
6
1
1
1
3
2
4
0
3
2
7
2
0
2
4
0
2
3
3
2
0
3
2
4
2
1
2
2
6
3
1
4
2
5
3
5
2
3
3
2
5
3
1
5
2
2
0
4
2
4
2
3
4
3
2
2
5
3
3
7
3
3
1
2
3
2
0
4
3
2
4
3
2
5
2
1
1
5
0
3
2
2
6
3
0
1
2
8
3
3
3
6
2
5
2
2
3
4
4
4
1
6
5
2
5
5
2
0
1
8
3
2
4
2
2
2
3
0
1
3
2
7
2
4
4
3
3
3
2
4
1
1
2
3
4
5
2
5
5
1
4
1
3
2
1
3
2
4
1
4
2
5
3
1
4
3
2
1
2
3
3
23
87
57
52
59
44
40
40
47
43
26
29
32
30
33
24
18
22
16
20
17
21
19
18
16
13
12
11
14
10
12
17
19
15
14
12
16
14
9
8
9
11
9
12
14
6
7
11
7
10
7
11
9
8
8
8
10
14
11
10
4
9
15
7
4
7
8
5
10
8
8
8
10
15
7
13
10
9
8
11
8
12
8
10
15
5
9
11
6
6
6
9
4
10
8
10
7
6
5
9
6
7
12
7
4
15
16
8
11
10
6
7
10
12
5
7
9
8
7
9
11
11
11
10
4
8
14
11
8
9
5
8
9
11
8
14
8
11
10
12
15
6
8
9
11
6
6
10
8
10
10
9
8
9
12
11
12
7
4
7
10
8
8
8
8
6
6
8
10
10
9
8
10
6
11
4
8
4
5
7
9
12
3
5
10
10
10
6
10
12
5
9
11
10
6
8
14
7
9
12
38
135
99
107
100
85
80
70
63
61
59
52
59
46
40
46
37
46
31
24
25
24
19
33
25
20
19
27
21
27
18
11
14
8
12
13
16
11
23
14
12
11
9
18
11
10
12
12
13
8
12
16
10
9
9
14
13
4
9
12
7
7
10
14
10
19
9
12
7
12
10
8
12
10
13
17
7
12
8
13
15
11
8
14
14
13
10
17
10
10
11
14
8
17
8
14
10
11
11
13
12
16
18
8
7
10
11
12
13
13
12
15
19
8
7
11
14
14
12
12
19
13
12
3
12
8
11
13
3
8
6
9
16
11
9
12
9
12
7
10
5
9
11
12
11
6
7
11
10
11
11
17
13
9
10
5
13
10
8
11
11
6
13
11
11
11
12
10
11
17
15
10
11
2
14
9
12
9
10
13
13
9
8
16
10
6
15
12
14
8
7
12
5
19
10
10
13
10
10
8
11
6
1
5
1
2
2
1
3
5
0
2
4
3
1
3
1
3
2
2
1
4
4
2
2
7
5
2
2
7
1
1
8
3
4
5
0
5
2
2
0
2
1
3
2
7
4
5
5
4
2
3
2
4
3
5
3
6
3
7
3
1
4
1
1
1
4
1
3
2
2
3
4
4
0
6
3
6
5
4
2
2
2
1
5
2
4
4
3
3
3
2
2
2
5
2
5
2
2
3
4
3
2
2
3
5
0
3
3
5
2
2
3
1
3
2
4
3
2
2
4
3
7
3
2
4
3
3
4
1
0
2
4
0
1
2
1
2
3
6
4
4
3
2
5
3
3
1
4
3
4
1
0
3
2
2
3
5
1
5
5
3
1
1
3
3
1
2
7
2
3
1
2
2
0
3
1
3
3
6
3
2
4
1
24
76
92
64
44
49
44
44
35
22
34
22
38
19
28
29
21
19
22
18
17
22
20
20
13
19
14
9
10
12
11
11
9
12
12
10
18
8
13
9
8
7
12
8
8
12
11
11
7
10
8
9
14
5
13
5
10
9
12
16
9
10
9
5
7
8
13
6
12
11
4
10
9
12
6
8
6
5
11
9
10
8
8
15
9
7
8
8
13
10
9
12
7
12
13
9
11
7
10
9
13
8
7
14
4
7
9
4
7
9
4
9
12
9
8
8
6
8
18
10
5
10
10
8
10
11
13
9
5
10
6
4
8
17
12
12
6
7
3
10
6
6
15
13
10
5
12
11
7
6
8
6
8
13
10
5
13
4
5
8
6
6
4
13
9
2
9
7
5
13
8
14
14
10
11
12
7
7
15
7
8
8
7
6
8
6
14
9
13
13
7
9
10
12
9
8
7
9
8
8
30
145
98
104
96
90
93
73
52
60
55
51
54
47
39
32
38
35
31
42
22
23
29
30
41
27
24
13
20
17
26
25
20
15
17
17
17
17
13
14
12
15
21
13
15
11
8
15
8
12
10
11
12
8
16
13
15
20
13
9
11
15
15
13
8
13
10
6
13
12
3
10
16
19
13
9
12
18
9
11
8
10
16
14
13
8
15
12
6
10
9
12
12
5
16
4
9
10
12
10
14
14
9
8
6
15
11
18
8
13
5
22
13
11
9
17
9
14
13
11
11
9
16
12
14
10
7
10
11
10
13
11
4
11
5
11
14
6
16
15
14
12
10
10
6
6
13
11
13
10
9
12
5
13
11
13
13
13
19
5
16
14
11
11
10
10
14
8
8
9
11
16
15
11
17
12
11
12
11
13
9
11
10
16
11
8
13
7
7
13
14
12
12
9
8
11
11
3
14
13
11
4
3
3
5
5
2
4
4
4
0
1
2
6
4
3
0
3
2
6
7
2
1
3
4
4
1
3
3
3
2
8
4
3
3
3
4
5
0
1
4
4
3
4
3
1
0
0
3
3
1
3
5
1
3
1
3
4
0
4
5
2
1
3
2
4
2
6
2
3
5
1
4
4
2
3
7
3
2
6
6
4
0
3
6
2
2
8
2
2
3
5
3
2
3
5
5
1
3
4
3
2
0
1
7
0
1
4
3
4
3
3
3
2
4
3
1
4
2
3
5
3
2
3
3
3
6
3
1
2
4
0
1
1
0
1
6
3
1
4
1
2
5
4
3
4
2
2
4
2
2
3
4
6
1
7
2
7
5
0
1
2
1
3
2
0
4
1
4
2
3
4
2
5
2
3
2
4
2
2
1
2
7
0
3
6
2
3
4
2
1
3
4
3
14
74
62
65
55
41
45
33
40
32
38
39
22
35
27
22
30
24
28
13
22
17
18
12
12
15
8
16
14
14
8
13
8
15
14
11
4
7
13
8
14
15
13
10
6
12
9
8
12
13
10
5
6
7
8
7
11
5
6
8
10
10
5
9
4
8
8
9
9
11
10
9
8
10
14
6
6
8
8
10
8
12
16
9
7
4
7
6
16
6
9
6
13
6
7
9
5
13
5
6
9
7
11
9
6
9
10
7
9
9
7
10
9
5
6
5
8
11
8
15
14
9
5
8
7
7
8
12
18
11
7
13
9
7
9
9
7
5
9
12
12
10
9
8
10
12
11
14
9
17
7
11
12
10
8
8
6
8
4
9
13
5
7
9
8
7
9
9
10
7
10
8
10
10
13
8
7
7
8
10
12
3
5
10
4
8
15
8
9
11
10
7
8
7
7
13
5
8
12
7
26
119
101
116
85
73
70
66
70
68
46
49
44
40
47
37
37
37
28
28
40
22
36
19
20
19
20
18
24
16
18
14
14
9
10
13
19
17
16
17
15
19
15
4
15
22
12
12
11
7
12
13
11
10
11
12
9
15
15
8
18
11
12
12
7
12
11
11
7
12
7
4
11
9
12
14
8
10
9
16
12
13
11
13
20
8
7
17
8
4
9
15
8
13
8
7
11
16
14
10
9
7
13
16
16
8
12
10
8
14
12
14
9
10
8
11
14
5
16
12
13
7
15
11
3
10
12
8
14
10
11
19
11
12
12
12
14
6
8
11
6
12
5
11
6
13
14
10
8
14
15
16
14
10
17
16
12
7
8
8
7
10
11
13
7
14
6
10
17
12
14
11
11
10
12
10
15
9
9
13
7
7
7
15
10
14
12
5
8
15
17
9
12
14
15
14
14
6
16
12
11
3
2
0
1
0
5
6
5
5
6
2
2
2
5
3
3
1
0
1
2
3
2
2
2
4
2
4
3
2
3
2
1
0
3
2
4
5
3
3
7
2
0
5
1
3
2
5
5
0
2
0
2
2
1
4
3
3
0
2
1
4
2
2
4
3
1
4
4
2
2
1
4
4
5
2
3
1
3
4
4
2
2
1
3
4
5
1
3
3
3
2
3
1
4
2
2
1
4
2
5
5
4
3
6
6
5
1
1
3
5
3
2
2
1
5
1
3
0
3
1
3
5
4
3
0
3
3
3
1
5
2
4
5
4
4
3
3
7
2
1
1
1
5
1
4
4
6
2
2
4
1
4
1
2
1
4
5
5
6
0
6
1
5
5
1
3
3
5
4
5
2
2
2
2
1
7
1
0
2
3
4
5
4
2
4
2
3
3
2
4
3
1
3
1
3
4
4
1
1
2
4
2
0
15
76
56
62
62
51
44
30
39
42
36
36
32
20
31
18
24
22
17
15
20
20
16
16
11
13
10
17
6
17
15
6
15
10
14
5
17
6
16
7
10
11
14
9
9
9
6
8
13
15
9
10
12
6
11
12
9
12
11
9
11
4
7
8
8
9
5
8
13
14
7
4
8
11
12
9
8
14
10
8
9
9
6
12
7
8
13
9
8
11
12
15
8
9
12
6
11
10
10
13
8
10
6
9
8
14
7
12
10
6
7
8
7
9
11
6
13
13
8
12
10
11
7
7
8
11
6
8
8
5
5
11
7
10
7
10
12
6
11
10
8
3
11
8
9
5
10
13
10
1
7
15
10
10
8
8
8
6
10
6
11
10
9
9
10
5
7
8
12
10
1
13
12
15
10
14
6
7
6
7
7
7
7
10
8
7
9
5
6
9
7
7
6
8
10
14
5
10
12
16
39
141
103
106
80
89
81
77
68
66
54
63
53
42
48
41
44
40
26
34
34
34
27
19
22
10
27
19
21
21
22
16
16
14
8
13
19
19
15
10
16
10
14
10
11
11
12
10
12
8
10
16
20
10
12
15
9
12
11
11
16
11
10
16
9
6
11
15
12
12
13
10
17
18
13
13
7
10
7
12
11
10
14
16
9
15
14
8
11
7
9
11
11
18
11
8
8
4
7
5
13
7
14
14
10
8
9
10
10
15
17
6
9
8
7
8
9
12
15
12
10
12
13
15
9
10
8
10
6
9
12
15
11
10
17
10
15
10
13
8
12
7
10
10
6
13
12
2
9
9
14
10
13
8
14
9
10
18
17
14
10
11
7
12
13
11
5
5
6
14
8
18
6
12
17
5
5
12
8
17
9
9
13
13
15
15
11
11
8
16
8
8
10
8
13
15
8
10
9
14
7
5
2
6
0
1
2
2
5
2
3
0
0
3
2
5
2
1
1
1
4
5
2
1
3
4
2
4
1
3
3
6
2
2
1
3
4
4
2
1
3
2
1
4
5
2
3
2
5
3
1
4
4
1
3
3
3
2
3
6
1
2
5
2
2
4
3
5
0
1
9
0
3
1
1
4
4
4
3
2
1
5
2
4
2
0
2
0
4
4
2
3
3
5
3
2
4
2
4
2
2
3
1
3
4
2
4
3
2
5
4
2
5
1
4
3
6
5
2
3
1
6
5
4
3
4
1
2
1
4
3
2
4
1
2
3
2
2
2
5
1
4
1
3
3
3
3
2
4
4
2
4
4
1
1
2
2
2
4
2
2
4
2
1
1
1
4
2
2
7
0
4
1
0
2
4
1
1
4
2
3
2
4
1
3
3
4
3
5
0
1
3
0
1
5
3
3
5
3
2
4
3
4
4
3
0
3
1
2
1
3
5
1
0
14
78
66
50
48
46
50
42
51
41
25
36
26
30
28
31
24
21
20
17
16
23
10
18
13
14
14
16
12
12
14
14
9
15
16
9
11
13
8
14
11
8
12
10
7
11
8
12
8
4
3
10
10
14
12
5
10
6
11
8
7
7
8
5
5
12
7
5
8
8
12
5
10
10
5
11
9
12
10
7
10
15
8
8
13
7
8
5
9
13
10
7
12
13
4
8
12
7
6
10
7
9
9
7
13
12
9
9
8
10
11
5
8
11
9
5
7
6
11
8
9
12
6
6
13
5
9
5
10
10
9
10
8
12
6
10
7
9
5
5
3
7
4
8
9
11
7
8
14
12
15
12
10
6
4
15
5
7
11
7
11
12
6
12
6
4
7
12
10
14
11
8
7
8
9
4
4
12
10
10
10
15
8
6
7
10
8
11
12
5
7
12
10
7
13
9
8
8
6
7
34
126
114
91
82
89
72
64
59
58
58
53
51
48
41
36
42
32
27
39
32
29
20
25
29
26
15
13
27
16
16
16
28
11
15
13
18
18
18
15
15
11
8
12
15
10
8
14
13
16
10
13
15
18
19
18
11
14
8
19
11
12
9
15
7
16
9
11
9
9
15
11
14
8
10
14
14
15
13
13
13
3
11
16
9
16
12
11
9
14
13
13
14
15
11
11
10
17
13
11
18
4
9
17
14
8
9
10
13
10
9
8
11
9
8
9
10
11
4
9
9
6
7
15
15
6
7
10
10
16
14
8
16
16
9
18
9
10
15
9
13
11
9
13
14
6
9
10
14
7
4
9
10
11
7
14
10
8
14
11
7
16
11
5
11
7
12
7
8
14
5
8
11
13
12
7
14
9
8
9
12
9
8
6
11
14
9
14
10
11
12
8
10
9
8
11
11
6
5
12
9
1
4
2
2
5
2
2
2
3
6
2
1
2
4
4
4
5
3
2
7
1
6
3
7
2
5
6
1
1
3
1
1
3
2
4
2
3
3
1
7
2
2
1
4
4
1
4
3
4
2
3
1
1
4
3
0
4
3
1
3
2
3
5
4
3
4
2
0
1
1
2
4
1
2
3
3
3
2
2
1
2
4
2
0
1
3
3
3
2
3
0
7
1
3
2
1
8
2
1
5
5
5
3
4
9
5
1
5
5
2
3
1
7
5
3
1
2
3
3
3
2
4
3
4
3
4
1
4
3
4
4
4
4
1
1
2
4
5
3
5
3
3
4
5
3
2
5
4
7
2
4
6
4
3
3
1
6
1
3
2
4
9
4
1
5
6
4
1
4
3
6
2
1
2
3
4
2
1
3
1
6
3
2
1
0
2
2
2
3
1
3
2
2
5
0
9
4
7
3
0
3
0
2
0
1
4
4
3
2
2
1
5
2
3
1
1
6
4
2
0
3
1
3
25
96
69
60
53
53
42
47
35
38
32
30
23
27
32
13
24
25
25
21
24
15
15
19
11
13
19
6
6
14
12
5
9
12
11
18
9
9
8
6
8
8
9
6
7
11
8
5
7
7
17
13
11
9
11
11
8
9
5
10
12
12
12
8
8
10
8
8
11
6
10
5
8
10
5
8
7
4
4
11
14
4
8
10
6
6
5
10
6
6
6
7
9
8
6
9
9
8
8
10
8
11
6
16
7
12
16
5
12
13
11
9
7
11
10
5
7
11
8
9
10
11
9
8
10
5
7
11
7
10
17
10
8
9
8
4
9
12
8
8
9
8
12
5
5
8
8
4
9
10
4
11
6
4
11
8
5
4
3
9
8
10
7
8
9
12
10
7
16
9
10
9
6
9
8
6
4
9
14
10
9
12
8
2
4
11
9
9
3
9
2
10
6
5
12
11
10
7
7
8
23
125
114
91
81
68
67
77
53
59
62
51
50
43
51
43
35
31
32
32
30
33
24
24
27
20
19
20
18
25
21
23
15
20
16
14
9
17
20
21
11
17
9
17
11
21
8
13
7
13
15
18
11
13
13
13
12
14
16
7
9
13
5
6
13
13
13
16
11
13
9
10
14
7
12
19
9
11
13
18
11
14
11
11
10
6
10
7
7
11
14
11
8
7
10
8
6
14
5
14
11
16
15
11
11
10
12
11
8
8
6
13
8
11
15
12
13
14
9
14
11
10
11
14
10
12
10
13
11
8
14
17
7
10
12
5
8
10
14
8
10
11
4
7
13
15
10
14
15
16
11
11
14
9
11
3
8
11
10
9
7
19
15
10
7
14
8
10
14
13
11
8
14
7
5
13
12
7
17
6
14
13
13
16
9
9
9
9
12
12
14
11
11
11
18
15
11
10
11
11
9
2
2
4
2
3
3
6
2
4
7
1
4
8
2
2
4
1
3
1
4
2
3
6
1
5
4
4
3
5
3
2
3
3
3
4
3
0
1
1
3
0
2
2
2
4
5
5
5
5
2
2
5
4
4
4
1
0
6
5
2
5
2
1
4
2
3
2
7
3
1
2
1
3
0
3
1
1
4
6
3
7
8
1
2
2
5
2
3
4
3
1
4
1
1
3
4
3
4
3
2
3
2
3
5
3
4
2
4
2
2
6
5
5
3
1
3
5
3
3
2
2
6
1
2
6
0
4
3
7
2
5
0
4
3
6
5
0
3
3
1
6
1
1
5
4
4
1
5
1
2
4
5
3
2
0
2
0
2
4
1
5
0
2
1
6
4
6
3
2
1
6
1
1
2
3
1
2
5
5
1
2
1
1
2
4
4
6
4
6
2
7
3
5
5
1
1
2
4
5
9
5
5
2
2
4
5
3
8
2
2
2
5
2
5
2
1
6
3
2
1
3
2
2
4
7
3
1
1
1
2
6
2
3
16
73
50
67
66
60
44
41
47
40
22
24
32
28
27
27
21
21
18
15
18
11
6
21
15
13
17
13
16
13
17
11
11
5
13
10
9
16
5
6
15
11
6
11
8
10
7
10
6
14
12
8
5
11
14
5
7
13
8
8
9
7
11
7
3
8
8
15
6
11
11
8
6
11
5
10
10
12
9
12
4
10
13
12
9
13
9
9
8
8
7
9
13
7
5
4
7
13
15
8
9
9
4
3
11
9
8
6
12
9
9
8
8
12
10
8
9
11
9
4
7
10
6
11
9
10
7
9
12
7
12
6
8
13
11
7
14
12
11
9
13
8
11
10
12
12
7
6
7
7
10
11
12
13
9
10
9
10
11
7
8
10
10
11
9
5
8
9
5
7
10
12
13
8
6
8
9
8
7
6
13
10
4
4
4
5
11
10
5
6
10
8
11
8
11
10
3
10
10
6
24
148
124
105
91
84
91
67
60
51
68
50
50
37
42
51
45
46
31
33
31
30
32
20
33
20
23
28
21
16
23
25
20
17
20
15
15
11
10
12
8
14
9
12
13
11
15
10
14
10
14
10
9
5
12
10
15
13
8
12
16
9
11
13
11
14
13
14
9
15
11
5
13
9
10
11
15
11
9
15
6
12
14
5
16
10
6
7
12
11
13
18
8
11
13
13
14
10
15
12
7
11
8
12
13
10
7
8
10
8
11
10
15
15
12
14
9
7
15
9
13
12
5
15
10
10
9
16
7
13
11
8
15
11
15
17
9
7
16
11
7
8
15
13
10
13
14
14
8
10
14
9
14
12
12
21
10
11
9
18
12
10
6
15
15
10
11
15
13
17
7
7
11
11
10
20
7
12
17
6
18
11
6
10
6
13
4
12
9
13
13
16
16
16
14
8
14
8
13
8
12
4
4
1
1
2
3
6
1
4
3
1
2
2
2
2
3
2
3
4
1
4
6
2
3
2
6
2
5
0
3
5
4
4
3
2
0
4
3
1
4
11
4
3
2
0
6
0
2
4
4
3
3
1
2
5
2
4
2
1
1
7
2
2
1
1
6
4
1
1
2
1
2
3
0
3
2
1
4
2
5
3
5
1
2
0
5
2
3
2
4
3
3
2
5
5
2
4
3
3
1
7
1
7
3
1
3
5
2
2
5
7
5
2
4
3
1
2
1
3
6
9
4
4
6
6
3
2
1
3
1
1
1
7
4
2
7
4
6
2
1
4
2
3
3
1
1
3
2
3
2
5
2
4
2
3
4
2
1
5
0
7
2
1
1
0
3
5
2
2
5
2
3
3
1
4
4
1
4
6
2
1
1
7
1
2
1
5
3
3
1
5
3
5
4
3
3
4
3
2
1
2
2
2
6
7
2
4
6
2
4
2
4
3
4
4
5
2
4
4
3
2
3
1
1
2
4
2
1
0
0
5
1
2
6
3
5
0
3
2
4
2
4
4
13
88
57
48
50
49
34
53
43
37
28
37
22
30
26
31
29
17
18
21
23
21
7
17
8
9
11
17
19
13
14
16
8
16
11
11
17
8
13
11
8
6
10
5
8
7
10
10
8
11
8
13
19
10
15
14
10
12
7
12
13
6
13
8
5
8
6
10
8
12
13
12
9
11
5
6
7
9
9
6
9
9
14
14
9
4
11
12
7
9
8
12
8
6
6
10
4
7
11
6
9
12
9
12
4
7
10
10
10
9
13
7
11
5
8
4
7
13
5
8
7
3
10
5
5
9
13
10
7
10
6
6
14
11
5
9
10
11
5
15
8
6
12
9
7
5
9
13
11
5
9
6
9
8
8
9
7
13
11
4
8
3
5
7
6
6
5
12
13
15
10
6
11
14
11
12
15
7
11
6
3
14
4
6
11
8
5
10
6
8
5
6
10
13
14
13
16
15
4
13
25
155
101
99
99
69
72
60
64
60
58
53
42
42
45
45
32
32
34
43
29
32
37
28
17
20
21
25
32
24
21
16
19
10
20
12
16
15
15
8
15
14
13
10
11
9
17
12
15
17
9
6
14
14
14
6
11
8
11
15
10
10
14
13
10
15
9
10
6
11
17
6
8
9
12
16
8
10
12
8
12
15
8
8
5
6
13
15
16
11
10
10
9
15
11
11
19
13
13
13
7
15
9
10
7
14
14
8
19
14
12
11
10
13
6
18
15
14
14
6
7
10
8
7
15
7
15
12
8
15
10
9
12
8
16
7
7
4
11
7
11
14
12
10
9
10
11
14
12
14
13
11
9
16
7
11
12
10
8
16
18
8
11
16
14
9
11
10
11
11
9
13
10
13
16
12
13
8
9
7
16
13
6
16
11
5
11
4
10
11
9
10
10
11
17
9
4
14
5
11
11
2
3
2
2
3
3
2
3
2
2
2
4
2
5
1
3
3
2
2
1
3
2
2
2
4
4
4
5
1
5
1
1
3
2
4
1
4
0
6
2
3
4
4
1
1
2
2
1
5
4
2
6
1
2
2
3
2
3
3
3
5
3
3
2
2
4
2
5
0
3
3
3
2
3
2
4
3
4
4
4
3
2
2
2
2
4
3
5
1
2
0
3
5
1
0
0
4
3
3
5
3
1
0
2
0
3
3
1
5
1
4
3
3
1
3
4
1
8
3
0
2
4
4
8
3
7
3
4
3
1
2
2
2
2
0
3
1
4
3
4
0
2
0
2
0
3
3
4
5
2
4
0
4
3
2
3
5
5
3
4
0
2
6
3
2
6
3
7
2
3
1
5
5
4
1
2
3
3
2
3
2
3
1
1
0
2
6
1
2
4
6
1
4
1
5
4
5
3
4
3
1
4
5
3
5
0
4
0
3
3
3
4
2
2
0
3
4
3
4
2
2
2
2
2
0
4
5
1
3
5
6
5
0
5
2
4
1
5
4
2
4
2
5
2
4
4
4
2
1
3
1
2
1
17
84
58
56
61
47
37
45
40
31
27
32
26
30
18
22
25
24
21
18
26
13
22
18
17
18
10
8
7
18
17
11
8
18
11
9
10
16
6
9
12
12
9
16
10
7
6
11
6
9
7
7
7
14
8
12
14
5
6
6
7
9
14
9
7
10
7
9
15
8
5
15
6
10
11
10
9
4
5
13
8
9
7
8
14
8
5
9
8
8
8
6
10
8
10
13
6
13
5
10
10
11
11
9
12
11
9
10
12
5
6
11
13
9
8
8
9
10
4
12
6
8
8
11
9
6
4
7
7
8
13
9
10
11
7
8
8
14
10
13
11
10
5
10
5
6
3
7
10
7
12
9
10
10
9
12
10
9
9
11
3
11
3
2
10
9
9
9
7
8
7
6
9
7
17
11
11
10
8
6
7
10
11
7
6
7
6
10
7
8
6
14
11
9
9
8
9
15
6
6
23
127
108
78
89
91
85
76
63
81
59
67
56
47
38
51
37
39
37
30
16
30
34
28
18
19
22
26
27
25
18
15
14
21
23
13
23
21
17
12
14
15
9
16
14
9
19
9
15
12
10
16
9
8
13
6
12
11
6
12
17
9
8
6
13
17
11
7
13
13
14
9
13
6
10
8
18
10
15
8
12
10
6
7
14
7
9
19
11
10
13
11
13
15
9
9
9
9
9
12
6
10
6
10
18
8
12
12
14
15
8
11
11
16
8
16
11
20
6
11
12
14
9
8
6
7
13
5
14
10
15
7
13
12
8
11
7
7
12
6
8
13
11
8
10
14
8
13
11
9
8
8
21
12
12
5
13
8
13
15
10
17
8
12
9
11
10
15
11
14
9
14
11
14
11
12
11
9
5
11
12
17
11
19
14
8
13
12
9
10
7
11
6
12
9
14
13
11
10
9
7
5
2
2
0
3
4
1
3
4
5
3
7
5
5
1
7
4
3
4
4
7
3
2
1
2
0
4
1
1
1
3
4
0
0
2
1
5
5
4
6
0
3
1
2
1
3
5
5
4
6
1
4
2
5
5
2
4
4
3
2
2
6
4
3
4
1
2
7
2
0
1
5
1
3
3
5
1
3
5
5
4
0
0
3
2
3
3
4
3
2
2
2
4
0
3
2
2
1
3
4
5
3
4
3
2
1
3
1
2
4
1
2
1
6
0
2
2
3
3
6
3
5
5
3
0
3
3
4
2
2
1
2
5
2
0
1
3
2
0
1
2
2
1
2
2
5
6
4
3
3
4
6
3
2
1
2
1
2
4
4
3
3
3
4
2
0
2
2
3
5
2
3
1
5
5
3
3
4
0
1
1
3
3
5
1
3
4
1
1
4
2
6
4
2
5
0
3
5
3
2
1
3
1
2
3
3
1
0
3
3
2
5
3
2
1
4
4
2
2
2
5
2
1
1
4
3
5
2
2
6
1
1
1
2
4
6
2
0
6
3
4
3
2
1
3
1
2
4
1
2
0
4
3
2
1
5
1
2
1
3
6
2
3
16
74
65
45
60
46
45
40
59
43
34
28
27
22
23
21
14
16
27
21
5
19
10
11
15
15
12
12
17
17
10
8
13
6
15
16
7
8
11
15
7
13
10
17
4
2
7
7
13
13
8
8
12
7
8
9
12
10
4
6
11
10
10
13
6
18
11
7
7
9
10
10
11
8
10
4
9
4
9
6
6
16
12
4
7
12
9
11
7
11
7
9
5
5
11
10
6
8
8
7
10
8
5
6
15
8
7
12
11
7
15
13
10
5
4
11
11
5
8
10
7
11
4
15
5
3
9
7
9
6
12
7
9
9
10
7
8
8
8
5
7
9
15
10
9
8
10
10
7
10
6
13
10
9
10
8
8
10
10
8
12
16
7
7
7
9
4
9
6
4
11
8
9
11
8
11
6
10
8
8
8
14
7
9
12
12
12
10
6
11
10
17
10
8
9
10
9
6
11
10
28
117
103
99
86
92
73
77
64
60
51
53
43
47
59
41
37
26
36
34
28
30
24
31
22
24
21
18
16
17
28
17
12
20
13
20
19
14
16
18
12
17
27
12
19
12
8
12
15
16
9
9
9
11
11
8
12
8
9
11
11
12
12
16
16
10
9
17
12
12
9
6
12
15
10
15
10
16
7
14
9
10
11
11
8
12
14
11
10
6
11
10
8
11
14
12
12
9
12
6
9
15
13
11
8
10
14
13
12
12
14
17
10
9
11
6
9
8
8
11
12
14
10
6
15
10
7
15
7
8
6
10
7
10
9
10
12
11
5
14
12
12
10
12
17
6
13
12
14
6
8
10
14
5
14
9
15
12
7
12
12
10
7
12
11
5
11
7
11
9
15
12
11
11
11
8
4
15
10
22
4
9
10
6
12
13
14
9
9
12
15
14
11
12
9
14
9
13
14
9
7
3
3
1
3
4
4
2
3
1
5
0
2
3
2
0
6
5
3
4
0
5
0
9
3
6
2
1
3
1
3
3
3
2
2
1
1
2
4
1
5
0
4
4
5
4
0
3
5
5
0
2
1
1
1
2
3
2
1
2
2
2
4
0
2
0
0
6
2
3
2
2
0
5
4
2
5
1
0
3
4
2
0
3
1
4
4
2
3
2
4
2
2
0
3
2
4
1
4
3
4
2
2
5
4
2
2
3
1
3
3
3
4
0
0
3
3
6
1
5
5
2
4
2
4
2
5
5
5
2
2
2
4
5
3
1
2
2
2
3
3
1
2
4
4
3
3
2
4
4
5
4
1
5
4
2
8
7
3
4
9
3
4
2
3
5
3
4
4
3
3
3
5
5
2
2
0
5
7
1
3
2
2
1
2
1
2
2
1
4
2
2
3
7
3
4
3
3
3
4
5
2
3
4
5
1
4
2
1
2
2
3
2
4
2
0
2
4
6
3
2
3
5
3
2
4
1
1
8
1
6
5
2
6
3
1
4
1
3
3
5
3
6
3
4
7
1
1
4
3
6
2
5
3
5
3
1
2
3
0
0
0
1
0
4
3
2
0
4
4
3
3
2
2
11
62
55
45
54
44
58
44
41
39
39
35
34
27
26
19
26
20
18
21
19
11
14
14
8
16
15
20
6
9
14
12
8
12
13
12
14
8
12
11
15
9
9
14
12
6
10
11
7
6
9
10
6
12
12
10
12
9
6
8
6
10
10
9
8
4
16
8
5
7
9
9
10
7
15
12
8
6
8
7
3
2
9
7
11
5
14
8
14
5
12
14
9
7
13
6
11
8
6
14
8
8
12
10
5
7
9
8
9
7
11
10
5
10
12
3
4
9
11
13
11
11
9
12
6
8
17
9
12
7
4
5
7
11
6
6
6
10
9
13
7
11
5
8
8
4
12
10
8
6
7
11
12
9
12
6
11
2
5
14
10
11
9
12
11
10
10
3
11
14
10
7
7
9
11
7
9
11
6
8
11
8
13
6
1
9
9
8
5
11
12
15
12
10
10
7
10
11
9
10
37
152
100
110
92
76
81
76
63
65
62
49
46
55
49
45
37
36
34
37
29
26
23
17
16
16
17
25
27
22
15
14
18
19
13
15
16
17
7
16
12
10
20
19
9
8
6
9
7
7
11
11
7
12
9
13
11
9
16
13
14
14
10
13
18
9
4
10
16
14
22
10
10
14
9
13
9
14
14
13
16
10
13
9
9
14
7
10
11
9
14
13
13
15
10
9
12
7
7
13
14
12
9
12
11
7
9
3
10
12
11
13
9
19
6
8
11
11
12
6
10
14
9
12
16
9
10
17
10
11
8
18
9
5
7
11
5
8
9
11
10
7
12
16
13
13
11
10
8
9
16
12
7
12
14
10
17
10
17
13
12
9
12
8
8
11
11
8
16
13
10
10
12
10
9
7
13
8
11
15
7
8
7
6
12
13
9
12
7
14
12
3
11
7
6
17
11
13
9
13
6
2
3
2
3
2
5
1
4
3
0
4
1
4
2
3
4
5
2
2
1
3
3
0
3
1
3
3
0
2
1
3
2
1
1
2
1
4
4
2
5
1
4
1
0
1
5
4
3
2
2
2
5
0
2
2
2
4
3
4
2
5
1
2
2
4
1
3
3
2
6
3
4
2
3
1
3
6
0
1
2
7
4
3
1
2
3
1
4
3
3
6
3
2
4
3
4
3
3
2
0
2
4
3
5
3
1
2
2
3
3
5
4
2
1
4
3
3
5
1
0
1
4
1
3
1
3
2
4
2
1
5
2
1
5
4
3
2
1
2
0
8
8
3
1
5
2
4
3
3
4
1
4
5
3
1
5
4
4
2
0
6
5
9
4
6
3
1
4
1
3
2
5
3
2
6
3
1
6
3
1
2
1
2
2
2
1
3
1
2
0
4
4
1
4
4
7
6
1
1
6
0
4
3
2
1
3
3
4
3
1
4
3
2
0
2
4
4
4
3
2
3
3
3
8
0
2
2
4
2
2
4
4
2
2
1
3
1
1
4
2
3
2
4
1
2
4
5
2
4
5
2
4
2
2
1
4
3
2
2
3
3
6
3
4
4
3
2
2
5
5
2
4
3
0
1
3
3
3
3
3
4
2
2
17
71
57
57
56
46
50
42
35
45
33
37
22
29
36
19
24
20
25
24
16
18
12
13
19
18
11
7
8
16
5
11
5
12
8
13
17
5
6
16
15
5
8
11
16
6
9
11
12
1
10
7
11
12
12
9
7
6
11
3
8
11
8
11
6
9
11
7
11
9
10
8
12
11
10
8
11
11
17
7
9
11
7
5
11
9
17
9
9
9
5
16
8
11
8
9
13
14
10
11
4
10
13
14
9
4
8
9
9
8
8
2
10
12
13
7
2
13
12
9
13
7
9
7
7
13
8
7
7
8
10
11
8
10
10
7
10
10
16
6
11
12
11
6
11
12
12
6
8
5
4
7
6
8
4
5
10
13
2
9
8
10
11
9
12
11
5
12
9
12
4
7
12
10
12
7
10
10
8
12
10
12
6
7
15
15
7
12
13
6
9
10
10
5
8
12
4
6
10
6
31
119
81
95
94
65
87
73
58
62
61
42
42
53
50
35
30
36
32
30
35
25
32
22
25
25
25
26
26
12
22
18
25
19
23
18
15
10
15
14
11
18
20
14
11
11
11
8
14
19
15
12
16
14
14
14
9
18
13
12
12
19
9
15
12
9
7
12
10
16
11
7
10
11
12
14
10
17
14
12
16
13
10
11
18
7
12
8
16
10
12
17
11
6
5
11
3
9
13
17
11
17
6
10
12
8
8
8
14
13
9
19
18
13
12
7
10
7
14
13
15
12
13
17
5
12
11
8
10
10
8
11
13
8
14
11
11
13
5
7
19
16
7
10
11
10
13
14
7
13
7
12
14
8
14
8
11
12
7
13
7
19
9
8
12
10
17
5
11
11
16
9
7
13
13
7
13
9
10
2
19
11
9
12
10
5
9
11
16
4
11
15
10
11
15
13
8
11
7
3
10
4
1
2
6
1
4
3
4
3
6
1
2
5
1
1
2
2
2
3
3
4
1
2
1
2
0
1
2
2
1
2
3
2
3
5
0
3
1
4
1
2
2
1
5
6
4
1
0
5
3
5
2
5
1
6
2
2
1
2
2
1
1
2
1
2
3
4
2
4
3
1
1
4
1
6
5
2
3
4
3
3
2
1
3
2
2
1
3
4
4
1
3
5
8
5
4
2
1
2
5
3
3
3
6
0
3
0
3
4
6
3
4
2
4
4
3
3
1
7
4
2
1
4
4
4
2
5
3
2
4
3
5
4
4
5
2
5
2
1
1
2
2
1
3
6
0
4
3
5
2
4
1
4
6
2
5
4
3
0
2
1
1
2
2
6
4
1
1
0
3
5
2
5
0
2
0
5
3
5
4
4
1
2
4
2
5
1
1
4
5
4
3
3
4
3
4
2
2
2
4
3
4
3
3
1
1
2
1
7
3
3
7
4
2
0
3
3
4
3
5
4
3
1
4
2
4
6
0
2
4
1
2
4
5
1
4
4
4
1
1
2
4
6
1
4
2
3
2
3
3
3
0
2
4
1
4
2
2
2
4
3
7
7
3
2
3
4
2
4
5
2
4
3
3
4
1
5
1
2
0
2
2
3
3
4
4
1
2
3
2
4
2
0
14
86
60
50
50
63
46
36
27
44
32
41
23
29
20
29
20
24
18
20
9
14
24
17
20
11
10
11
6
11
14
11
9
11
10
15
9
11
13
14
8
13
3
13
8
5
7
6
10
6
10
16
8
7
7
8
3
9
13
11
8
8
10
7
6
8
13
9
13
13
7
10
9
5
6
11
14
10
7
9
7
13
12
6
10
10
6
9
10
7
12
5
11
9
15
11
14
10
12
15
10
7
6
10
10
8
10
6
13
14
9
9
4
9
7
9
9
5
14
5
7
9
11
12
3
9
9
13
11
12
6
9
6
10
9
5
8
6
7
6
6
14
4
8
5
5
8
11
8
9
6
8
12
7
15
11
10
11
6
10
6
9
9
5
7
13
9
9
7
13
11
9
9
13
6
9
10
9
9
7
5
9
8
8
10
14
9
13
11
7
7
3
3
7
8
13
7
12
7
10
39
129
117
80
105
76
65
73
60
72
46
43
45
42
34
49
30
38
43
29
29
22
24
22
17
29
33
19
17
16
11
22
24
12
11
12
11
15
17
12
12
16
10
20
6
21
8
10
11
7
8
17
16
5
10
9
12
8
9
10
10
21
10
17
9
17
9
11
15
10
13
11
18
11
11
12
5
6
19
11
19
17
15
12
15
14
10
12
11
13
16
14
12
20
12
11
7
15
12
17
13
12
16
10
8
10
15
9
10
10
15
13
10
12
8
15
9
12
14
8
8
16
18
8
11
10
13
8
8
4
7
11
6
7
7
11
10
13
9
11
11
12
10
8
11
7
10
14
9
12
13
14
7
15
12
8
10
8
16
7
8
11
10
6
11
12
8
12
16
10
10
12
11
8
11
8
13
12
6
9
18
7
5
16
13
8
11
12
9
10
9
18
12
13
8
11
9
8
13
10
4
3
3
3
6
1
3
3
3
4
3
3
4
3
5
1
2
4
3
4
3
3
2
5
3
5
7
3
1
3
3
5
1
2
1
7
4
3
1
3
1
1
5
3
4
4
1
5
2
3
2
2
1
3
3
1
2
4
4
5
2
1
0
3
2
0
1
7
3
0
3
2
3
4
3
4
2
1
4
2
3
4
3
2
1
6
6
2
2
9
2
4
3
3
1
4
2
8
3
2
3
3
1
2
5
4
3
4
3
3
4
2
5
4
1
2
2
4
4
3
3
5
2
1
1
2
1
2
3
2
1
1
2
2
2
2
4
1
2
4
1
1
2
3
2
3
4
4
4
3
5
2
1
3
3
1
1
4
3
3
2
4
1
6
2
1
3
2
5
2
2
1
1
2
5
2
4
0
2
0
4
4
1
3
2
2
0
0
2
3
1
2
2
8
1
3
3
3
2
4
5
4
3
3
3
1
5
1
5
1
6
3
1
4
2
0
2
7
7
4
3
1
5
2
6
3
1
1
0
2
2
0
2
3
2
1
5
2
2
3
6
4
1
7
0
2
2
0
2
1
2
0
6
3
5
4
1
2
1
2
4
0
1
3
2
4
0
2
1
2
2
1
5
2
2
3
3
7
3
3
5
2
3
0
2
5
5
3
3
4
6
6
1
2
3
2
7
2
11
5
2
2
3
4
1
3
3
0
2
2
0
0
4
0
3
3
4
3
2
0
2
6
0
3
1
1
5
3
3
1
2
1
3
0
2
1
0
3
3
3
1
4
2
4
1
1
5
0
1
4
3
3
2
3
2
2
5
2
0
3
1
3
1
0
0
1
3
2
0
1
0
1
0
1
1
1
1
0
4
1
2
2
1
4
6
2
0
1
0
2
2
1
1
1
1
1
2
3
2
1
1
1
2
0
0
2
2
3
2
1
2
1
1
1
2
2
0
0
3
1
2
1
1
3
7
1
1
0
4
2
3
4
7
0
1
0
2
1
2
3
4
1
2
2
4
3
1
1
2
3
2
0
2
2
0
3
3
4
2
2
1
2
1
1
2
3
2
2
2
1
1
0
5
5
1
3
1
2
1
2
6
3
2
1
1
4
2
2
0
0
1
0
2
