#Saved Data from the class pulsed_measurement_logic on 18.11.2022 at 10h50m11s.
#
#Parameters:
#===========
#
#bin width (s): 1.0000000000000000e-08
#record length (s): 1.0030000000000001e-05
#gated counting: False
#Number of laser pulses: 2
#alternating: False
#Controlled variable: [2e-06]
#
#Data:
#=====
#Signal(counts)
4
4
9
9
6
5
6
10
9
3
10
5
10
3
17
6
4
7
7
6
9
8
7
5
17
36
32
32
30
30
40
48
37
43
38
38
33
40
41
25
40
48
35
39
31
36
25
34
34
29
33
35
34
30
31
38
34
29
34
34
34
32
28
31
35
39
24
40
49
34
40
31
34
29
41
39
36
23
38
39
32
27
38
28
42
35
38
28
34
39
29
26
33
34
31
26
41
31
35
50
28
29
35
24
35
39
37
33
38
30
34
37
25
31
36
25
35
32
28
42
36
38
26
27
33
28
22
33
35
39
34
41
26
24
31
20
23
24
31
26
30
36
25
31
35
31
34
27
40
33
38
29
20
25
28
32
43
33
33
24
27
27
33
32
29
26
37
24
27
35
31
35
26
32
31
43
23
31
44
31
32
27
32
30
30
29
36
37
30
24
31
31
38
44
27
23
25
39
27
30
32
28
26
21
25
38
24
29
27
26
27
17
25
36
34
32
31
36
32
27
36
32
26
25
22
15
12
10
13
5
9
8
8
6
10
9
8
6
12
7
6
7
5
10
9
10
10
8
2
13
8
9
8
6
11
4
6
6
6
12
5
9
12
8
6
6
6
10
7
11
8
7
8
9
7
4
9
15
1
8
10
6
5
7
7
14
7
8
10
6
16
12
7
10
3
7
8
8
10
7
9
12
6
3
10
7
7
14
4
9
9
3
7
7
13
10
7
6
10
9
6
11
6
7
5
6
7
5
8
8
4
8
12
9
11
7
5
12
6
8
7
12
2
5
5
14
10
6
7
5
6
12
11
3
7
8
12
11
5
10
10
10
10
6
7
9
8
10
3
4
7
8
3
6
10
15
5
7
15
8
11
6
8
8
9
8
8
9
10
6
7
7
10
6
12
8
4
5
7
6
12
7
5
8
6
5
7
7
7
7
12
7
5
9
5
8
7
7
6
3
6
11
6
5
9
5
19
21
32
28
46
29
35
37
41
29
33
49
33
27
47
42
34
30
40
43
37
25
33
31
37
35
28
33
30
31
33
37
35
43
24
31
37
35
23
35
37
32
40
35
31
31
41
34
34
43
28
28
35
33
38
31
34
28
39
33
30
33
28
38
22
30
32
29
35
41
26
32
21
29
36
29
26
27
29
28
31
30
23
33
30
30
30
38
38
31
36
27
41
30
39
43
35
31
34
37
33
19
39
41
32
25
30
27
32
36
31
20
33
27
35
35
25
34
47
33
33
27
28
30
29
28
26
32
37
29
27
29
27
35
37
35
31
23
41
38
24
37
33
27
39
29
28
34
30
29
27
25
26
38
30
32
33
19
34
32
35
39
27
29
38
35
34
24
33
30
33
42
30
19
33
28
25
32
35
24
31
25
32
24
35
28
26
31
24
25
30
38
24
39
37
32
28
36
23
12
8
9
5
8
5
4
13
10
9
6
6
5
4
8
12
8
9
9
7
7
11
6
9
6
6
8
10
3
7
9
9
7
5
2
8
9
9
8
10
14
11
10
9
7
6
9
8
8
6
9
10
7
5
9
10
13
6
9
5
9
11
5
4
8
10
12
9
11
12
3
5
12
9
10
9
4
11
6
14
11
8
4
9
6
10
11
3
14
8
6
7
7
8
4
6
5
7
8
8
7
5
9
6
7
8
9
11
5
7
10
11
11
7
7
10
12
9
7
8
8
6
11
7
5
7
12
10
10
7
10
15
7
7
8
12
10
9
9
12
10
7
13
10
7
9
6
15
6
8
10
6
13
9
5
6
5
8
8
11
8
6
11
6
12
5
7
9
11
6
12
11
11
2
6
5
8
4
6
7
7
6
8
4
6
9
5
12
6
10
5
9
8
6
8
9
3
9
8
14
10
10
5
9
2
8
3
13
11
8
8
8
7
12
8
8
6
12
11
4
9
8
5
8
9
10
10
9
8
5
7
4
4
6
10
10
2
8
8
5
9
10
15
6
7
8
5
9
5
10
6
14
7
2
8
6
7
6
9
8
12
15
5
9
4
5
6
7
8
15
18
8
6
8
6
3
4
5
9
4
6
9
10
11
4
14
6
9
3
9
4
8
13
13
7
6
7
14
4
10
4
8
13
10
10
6
10
3
5
6
9
10
7
7
6
6
7
12
10
8
7
7
5
10
11
12
16
12
5
9
6
4
2
9
12
9
8
10
12
7
5
5
3
3
6
7
13
10
13
9
7
14
4
6
10
9
8
4
7
7
6
5
10
5
8
7
13
6
7
10
4
10
8
6
6
4
2
7
