#Saved Data from the class pulsed_measurement_logic on 18.11.2022 at 17h08m49s.
#
#Parameters:
#===========
#
#bin width (s): 5.0000000000000001e-09
#record length (s): 8.6824999999999996e-05
#gated counting: False
#Number of laser pulses: 156
#alternating: False
#Controlled variable: [2e-08, 4e-08, 6.000000000000001e-08, 8e-08, 1e-07, 1.2e-07, 1.4e-07, 1.6e-07, 1.8e-07, 2e-07, 2.1999999999999998e-07, 2.4000000000000003e-07, 2.6000000000000005e-07, 2.8e-07, 3.0000000000000004e-07, 3.2e-07, 3.4000000000000003e-07, 3.6000000000000005e-07, 3.8e-07, 4.0000000000000003e-07, 4.2e-07, 4.4e-07, 4.6000000000000004e-07, 4.8e-07, 5.000000000000001e-07, 5.2e-07, 5.4e-07, 5.6e-07, 5.800000000000001e-07, 6.000000000000001e-07, 6.2e-07, 6.4e-07, 6.6e-07, 6.800000000000001e-07, 7.000000000000001e-07, 7.2e-07, 7.4e-07, 7.6e-07, 7.8e-07]
#
#Data:
#=====
#Signal(counts)
5
8
3
13
12
9
7
8
5
7
6
10
2
4
5
4
20
45
48
48
47
47
37
39
44
36
42
28
35
37
30
34
20
25
29
23
25
20
26
19
25
25
37
10
26
15
27
27
19
21
31
25
25
20
12
18
15
17
20
20
18
18
26
15
20
14
20
12
21
12
19
13
14
21
22
21
22
8
15
16
17
15
13
9
19
17
15
22
20
19
17
25
14
18
13
17
16
17
11
19
20
18
18
15
11
17
16
12
18
14
11
11
16
19
18
16
16
29
17
12
13
23
16
17
17
17
17
19
14
14
17
16
14
12
12
19
38
132
84
103
98
88
85
77
76
84
81
78
58
70
45
46
54
62
66
54
47
51
67
39
46
53
44
39
30
33
34
37
29
36
38
33
45
30
31
25
34
42
29
30
36
28
24
32
21
31
29
31
23
26
24
28
28
28
32
29
25
38
28
25
29
22
15
28
24
28
26
24
29
25
17
23
29
25
19
18
24
23
26
28
29
28
15
24
30
24
22
19
26
26
32
29
31
24
18
16
22
27
26
28
21
20
21
24
20
28
35
17
25
25
24
20
27
24
35
20
22
9
5
15
12
31
34
24
23
16
20
29
22
26
28
29
14
27
24
29
20
36
30
29
22
22
24
18
24
20
25
20
35
18
21
27
21
31
27
29
19
33
26
25
27
26
23
27
20
22
23
21
25
17
25
28
20
19
32
23
32
17
16
23
17
30
25
20
23
20
31
25
21
16
15
30
20
32
32
38
29
26
25
26
20
16
21
31
29
25
23
23
23
27
27
29
25
25
23
33
26
27
25
32
20
17
20
22
16
26
27
17
26
16
32
32
27
15
24
19
22
17
26
25
53
112
102
91
103
87
74
72
65
57
68
64
65
45
50
54
48
45
57
42
41
31
27
45
30
43
38
31
28
24
26
37
30
27
21
28
27
27
25
28
22
17
12
29
20
13
19
28
29
20
12
22
20
23
16
14
18
9
12
19
19
5
15
15
15
13
20
21
10
14
17
20
16
13
16
11
12
23
18
11
22
19
13
12
16
16
11
18
13
18
20
13
15
19
16
16
13
16
14
20
19
14
15
20
26
11
23
15
14
18
18
13
19
15
15
13
15
17
11
13
33
128
128
98
117
97
114
65
81
54
79
56
66
62
62
56
57
51
42
38
60
47
54
41
44
37
41
45
45
48
42
36
44
28
30
31
47
24
40
23
34
24
31
21
24
30
33
28
25
30
25
22
25
24
25
26
26
27
30
27
19
22
23
28
28
28
22
17
26
26
28
28
21
29
25
31
34
26
25
30
22
23
19
23
16
17
20
15
20
20
27
25
25
27
17
24
21
21
26
30
21
22
32
22
24
32
26
30
23
26
21
21
25
21
29
38
22
36
19
23
21
16
7
8
16
7
4
9
6
35
27
18
29
16
33
25
30
29
24
18
23
34
22
23
23
29
26
31
29
26
27
30
20
23
25
29
23
18
32
24
24
26
31
20
24
17
35
20
19
12
27
27
31
18
19
25
18
30
26
18
18
22
23
36
17
20
21
21
23
33
29
23
17
32
24
16
23
25
19
20
19
24
18
28
26
25
20
26
27
17
21
33
21
24
25
24
21
19
23
28
26
21
29
23
18
19
30
21
19
26
29
28
21
22
21
25
29
23
23
17
25
25
25
25
24
21
22
25
53
115
104
123
99
91
78
87
67
83
77
60
52
60
38
57
58
38
49
37
47
42
32
52
28
31
32
33
45
37
34
24
27
19
21
28
24
31
22
25
22
19
25
24
21
23
20
15
20
22
19
13
15
23
17
17
12
23
21
10
18
17
15
12
25
19
20
17
8
19
21
24
19
17
10
12
25
19
21
17
12
21
25
19
14
14
16
22
17
15
17
9
29
12
19
16
18
18
19
12
15
17
12
19
16
22
13
13
21
10
14
12
15
13
26
18
16
19
17
15
35
136
108
103
85
95
106
94
87
80
72
79
60
59
56
62
64
68
57
54
52
47
41
46
34
44
31
38
47
38
36
35
35
28
25
36
22
26
29
21
37
27
19
22
36
25
35
26
42
34
19
36
28
34
17
26
22
25
29
25
23
17
26
28
26
19
24
29
19
35
22
34
27
28
27
29
30
25
27
19
23
17
17
27
29
27
26
26
20
27
25
23
19
19
29
30
26
25
24
17
30
21
17
31
19
20
27
24
21
17
29
26
23
17
25
26
25
23
20
21
25
18
8
9
8
9
7
7
8
5
9
5
14
36
29
31
31
30
13
32
23
23
22
25
39
27
23
22
17
19
32
24
26
32
22
27
18
22
28
12
27
31
25
32
28
25
23
25
20
23
24
24
19
21
26
22
28
27
16
21
26
29
30
16
16
26
25
21
14
23
15
22
25
38
32
17
26
32
30
22
19
29
25
37
30
20
20
30
22
33
20
32
28
15
18
17
24
21
24
14
29
20
23
31
23
17
19
21
22
36
20
25
24
18
20
21
35
25
32
17
22
31
23
26
24
26
21
28
27
20
20
29
38
113
97
90
72
73
87
78
73
77
51
62
57
51
46
61
48
57
42
36
39
36
35
38
33
45
42
37
32
31
31
26
28
32
26
33
27
24
25
20
20
17
23
23
26
23
16
26
17
16
13
23
14
19
19
23
17
16
20
11
14
11
23
21
21
22
15
17
14
20
21
22
12
17
18
17
20
16
12
16
21
23
11
17
13
12
13
20
16
15
20
16
20
14
16
20
14
15
19
17
18
11
18
16
15
10
21
18
12
18
20
20
17
20
8
13
18
19
15
15
36
136
113
113
88
86
87
94
87
75
79
79
61
92
59
57
69
56
53
53
56
49
42
57
43
34
41
33
31
46
32
39
28
31
38
35
26
33
29
29
26
34
26
24
31
33
33
22
29
40
20
34
28
25
19
17
31
27
28
26
21
27
22
16
28
25
27
18
25
26
28
26
21
27
31
24
23
27
17
32
21
29
17
29
26
31
20
25
32
19
23
25
22
20
26
18
19
27
19
16
23
16
19
27
34
23
22
22
25
23
40
19
25
23
26
29
24
26
24
24
26
13
8
9
12
14
12
15
9
10
10
6
9
7
8
12
10
45
30
23
22
28
30
36
22
28
18
18
10
32
26
23
19
32
24
26
25
26
25
21
29
29
34
26
22
31
30
20
32
26
24
32
25
30
34
19
28
26
17
29
25
14
33
23
22
23
32
25
25
26
21
21
29
32
23
29
23
25
24
27
30
21
19
21
31
25
24
21
21
27
24
28
22
29
31
17
27
14
20
20
23
20
27
28
28
21
26
17
30
17
28
22
21
23
25
20
19
26
26
23
23
30
36
31
20
20
21
29
15
26
26
27
21
34
30
26
41
115
108
103
81
85
76
72
68
72
62
71
68
59
75
53
55
41
49
45
43
43
42
45
18
41
30
30
46
23
37
24
27
23
23
21
30
27
24
30
25
27
22
29
18
21
27
21
19
15
18
17
17
21
17
15
20
19
17
19
15
12
21
21
14
16
20
21
20
20
13
27
12
14
21
26
15
23
17
8
17
15
15
14
15
14
12
18
16
13
19
19
17
20
11
16
20
27
15
10
20
15
26
11
19
16
22
10
17
18
14
18
12
14
24
22
15
22
15
10
42
135
120
114
117
97
96
80
77
82
82
80
86
57
63
41
62
43
45
49
44
51
48
47
42
50
38
38
38
44
30
30
33
39
19
25
26
32
32
38
34
22
26
35
35
34
29
21
20
34
25
38
28
32
18
26
23
30
20
24
29
20
27
30
24
31
24
29
22
28
25
34
19
27
33
30
25
24
20
17
29
19
26
27
23
23
30
20
28
22
16
25
20
28
24
23
22
19
16
31
24
33
35
24
27
33
28
25
36
34
25
22
26
23
23
23
27
23
19
31
27
9
11
9
13
8
7
14
3
11
9
15
6
8
6
11
6
11
14
5
21
35
45
29
26
34
41
29
36
35
39
32
30
21
26
29
32
25
26
18
38
29
24
28
24
33
16
22
20
23
22
20
20
18
23
24
28
24
24
25
28
28
16
26
21
22
22
30
26
18
30
28
22
19
33
19
27
15
27
26
23
15
24
20
28
29
22
17
24
28
26
20
21
26
27
20
16
21
22
19
27
21
33
32
23
25
25
19
20
24
19
19
18
27
19
26
20
31
16
23
17
26
24
31
29
14
24
24
24
26
25
22
21
27
25
20
24
26
22
21
31
139
98
103
81
90
68
81
72
80
68
70
63
57
57
52
62
62
35
41
37
38
41
36
39
29
33
42
28
33
34
35
30
33
18
35
30
17
24
22
21
26
19
16
15
23
17
16
21
20
20
14
26
22
12
21
25
22
11
26
21
16
21
22
15
14
20
15
16
19
19
18
20
18
15
22
17
17
23
9
14
19
14
13
17
16
23
21
14
25
15
13
13
6
19
18
18
24
21
17
17
15
8
14
9
18
19
14
11
11
22
18
20
18
16
14
13
13
13
17
33
138
119
97
102
95
88
90
74
66
77
72
67
73
69
46
53
61
53
41
53
48
57
44
45
40
47
30
43
43
42
47
28
37
30
29
20
41
31
34
35
35
25
22
30
36
28
16
26
35
23
24
19
32
27
31
26
28
22
21
28
27
36
27
31
23
22
21
25
24
28
20
27
25
34
27
16
19
23
29
24
28
21
30
28
25
33
26
22
30
19
27
15
23
30
18
20
14
32
22
26
24
21
21
20
25
16
23
13
30
37
29
28
14
34
19
24
24
20
21
26
14
14
13
10
12
3
12
10
10
12
5
10
7
8
11
7
7
10
7
4
11
12
6
22
32
43
28
25
26
23
28
35
34
40
24
33
23
24
30
23
28
29
29
22
24
25
24
24
23
24
26
27
22
21
24
25
22
31
39
21
26
26
25
26
19
24
25
37
23
21
35
19
27
24
28
23
22
24
20
19
19
20
18
26
20
32
25
15
23
34
22
29
28
16
24
21
24
27
18
14
19
27
31
26
27
23
21
28
21
20
22
21
27
32
18
21
22
34
21
27
18
22
21
23
26
24
20
27
20
24
19
24
28
22
25
20
31
18
20
25
23
26
25
55
124
110
108
75
73
73
77
63
67
76
69
62
49
57
49
49
48
51
33
42
45
43
41
35
33
27
39
33
29
24
28
31
28
22
22
23
20
17
24
18
23
28
16
16
20
17
23
18
20
18
17
14
16
19
13
22
21
24
22
10
22
13
18
13
16
13
13
15
15
16
13
14
22
26
21
15
14
17
15
13
7
16
18
12
22
12
17
14
15
15
16
18
22
20
12
21
15
15
16
14
11
12
19
16
14
15
16
16
13
15
22
17
15
17
15
13
16
21
13
38
147
127
126
88
76
82
86
67
103
83
69
80
72
55
61
59
65
37
51
49
52
44
35
48
41
30
44
41
33
37
39
34
34
27
33
35
50
32
34
36
32
22
30
25
36
38
25
25
32
34
27
19
33
18
38
25
30
22
21
23
22
20
26
24
30
27
27
22
25
21
24
23
32
21
32
30
26
36
22
21
24
25
21
22
25
10
35
36
21
23
23
27
24
21
25
26
38
31
25
32
26
28
28
19
22
14
28
31
29
22
25
20
22
20
29
22
20
12
21
15
12
7
10
6
11
9
9
6
12
5
15
16
11
6
2
16
9
9
7
5
14
17
10
16
6
11
14
14
34
47
34
25
42
38
27
23
27
32
24
25
27
27
28
25
24
34
27
32
35
29
27
35
29
36
29
34
26
28
19
23
36
34
20
24
32
17
30
25
28
23
24
25
28
27
26
26
21
26
26
22
30
23
23
27
29
14
25
14
22
24
14
21
33
20
26
35
16
23
27
27
26
32
25
21
22
19
30
23
23
22
17
30
28
22
28
29
19
20
20
23
20
31
25
21
23
24
32
21
15
20
33
24
28
20
24
28
29
20
24
26
23
23
24
19
16
22
25
50
100
104
88
96
78
82
75
83
79
68
72
64
60
60
53
52
44
43
57
45
33
45
33
37
35
36
26
26
34
22
30
35
23
29
28
29
24
17
27
25
22
22
13
21
24
19
15
24
22
17
18
21
22
14
11
23
19
21
14
20
9
21
22
17
14
16
16
12
11
17
16
21
23
22
17
20
18
17
15
17
22
13
15
22
13
13
17
17
22
16
23
13
18
15
18
11
22
19
12
16
14
14
16
13
19
16
18
13
14
13
19
19
6
13
14
24
9
17
19
34
138
107
98
102
98
94
103
85
76
64
61
83
48
60
60
63
56
60
50
41
56
46
41
46
44
35
41
42
44
30
30
33
39
40
35
30
29
34
30
37
30
33
35
26
25
27
21
35
22
28
39
28
27
16
29
25
25
24
22
16
25
25
22
28
37
17
15
27
24
17
32
22
23
29
23
25
39
19
26
21
35
29
23
20
23
31
19
22
25
28
23
35
28
27
22
25
26
15
25
22
32
29
21
25
24
27
14
26
20
17
24
25
15
22
32
24
17
26
26
12
9
8
13
7
17
12
9
8
10
4
10
10
10
10
11
10
10
9
8
10
11
11
10
9
9
12
7
8
9
14
15
6
32
37
46
26
34
35
40
36
26
28
31
29
23
30
29
22
26
28
28
37
32
32
18
29
23
18
20
30
28
25
28
29
27
32
23
22
21
20
27
19
25
30
15
22
22
27
21
16
17
16
26
31
32
24
25
21
27
15
28
21
23
17
23
26
26
14
17
27
14
25
20
26
25
20
25
22
36
24
29
32
15
22
26
19
27
20
24
22
18
22
27
32
29
21
22
20
20
23
24
23
31
19
20
32
23
24
25
25
24
21
27
24
25
22
26
31
25
24
17
31
119
92
99
97
83
71
57
72
76
70
66
68
53
44
40
45
41
50
54
46
35
25
41
30
34
15
44
25
23
30
24
31
27
29
22
27
28
24
30
26
24
21
22
23
29
19
17
23
24
23
15
17
14
30
20
17
26
8
17
13
17
22
19
22
17
23
14
15
14
16
20
15
12
14
23
15
20
17
28
16
16
21
18
18
17
14
18
16
16
22
16
27
20
17
21
17
17
21
12
15
22
23
9
19
14
13
16
11
14
10
25
13
14
19
14
20
10
20
20
31
146
118
103
118
97
96
79
85
87
68
70
67
60
55
63
70
52
38
48
51
51
58
42
36
49
31
41
43
31
32
32
31
39
30
36
48
35
34
26
28
38
35
30
29
28
25
21
23
26
27
21
38
35
34
19
21
21
26
30
27
29
35
20
18
26
23
32
21
28
24
32
22
38
22
29
18
25
29
28
19
14
28
24
21
25
23
23
22
13
23
21
17
23
16
21
27
25
26
29
27
28
17
23
21
23
25
31
28
16
18
24
17
26
24
22
17
25
22
16
23
12
13
10
9
6
7
3
14
4
4
14
3
8
11
10
11
10
9
12
13
11
10
13
5
11
5
8
7
7
8
9
8
9
9
10
14
55
48
38
34
43
27
38
24
43
41
34
28
49
33
38
35
33
38
30
28
30
35
27
25
24
26
28
25
33
22
32
22
22
25
25
30
32
28
17
20
24
16
21
22
26
22
17
21
24
21
25
25
22
20
27
17
22
24
26
22
26
24
34
28
27
17
23
26
26
21
30
20
21
20
19
26
29
17
18
26
28
25
28
19
24
25
20
20
22
25
21
38
24
21
23
30
18
17
22
28
31
19
16
27
21
16
33
24
30
26
21
26
17
27
24
34
18
17
21
43
119
103
86
96
76
75
78
80
56
71
60
62
46
59
45
50
41
58
49
44
43
47
32
31
25
40
33
32
28
24
32
31
28
20
30
29
19
29
25
29
25
22
18
23
23
17
20
20
17
16
15
11
20
23
16
14
22
14
20
14
22
22
22
20
20
14
12
18
10
19
19
11
13
15
18
23
10
12
14
12
23
19
14
13
30
17
14
13
21
23
13
25
13
10
15
17
14
18
13
16
13
25
19
16
12
15
9
8
13
13
12
16
12
18
11
9
19
13
21
47
154
108
106
107
96
79
79
78
86
83
68
50
70
60
59
60
60
36
42
34
51
53
49
57
32
42
37
48
34
36
38
30
35
22
35
32
33
29
34
27
30
33
31
37
16
24
26
32
31
30
27
35
27
32
20
20
22
29
19
18
19
18
38
30
23
27
14
24
16
29
31
28
32
30
20
22
18
22
16
29
22
22
34
29
21
21
20
27
16
24
30
25
20
25
25
22
34
27
23
26
27
27
14
27
24
37
25
19
25
27
26
24
18
28
27
20
26
29
24
17
20
6
11
11
7
7
8
13
11
5
13
10
12
8
10
9
10
7
7
9
4
5
12
8
14
7
11
12
12
9
4
7
11
9
11
14
16
9
9
23
42
48
38
45
50
36
41
32
24
37
39
33
25
35
27
28
28
32
25
30
36
19
21
23
35
33
28
27
29
34
28
21
33
28
29
23
25
25
27
18
25
33
22
17
20
28
25
22
24
25
26
35
31
26
30
32
21
34
23
27
16
20
17
26
20
23
23
33
21
26
24
24
29
26
24
23
32
22
23
23
19
17
23
29
35
23
28
35
18
23
19
23
32
20
26
28
30
22
28
24
19
19
24
26
20
17
18
26
22
34
16
29
23
25
20
19
23
23
20
45
126
82
98
90
85
100
62
72
82
69
56
57
56
58
48
52
42
55
38
40
30
39
44
30
27
33
28
23
22
29
26
25
36
20
18
21
33
27
14
20
11
24
23
29
23
21
17
17
18
15
9
20
21
23
16
16
20
25
11
16
20
19
23
12
17
19
15
21
17
21
17
24
15
18
15
16
15
15
19
17
18
14
8
18
15
23
16
17
18
5
18
19
18
12
7
17
16
12
16
13
13
18
14
17
16
13
20
16
11
20
23
17
20
12
11
13
21
16
14
39
113
112
116
105
103
112
75
88
82
80
72
67
66
67
64
48
51
45
57
50
48
45
65
39
25
47
45
41
35
45
42
35
35
46
30
39
29
24
30
30
28
26
29
35
25
31
35
30
33
16
33
24
34
25
22
21
20
27
32
21
20
24
21
23
24
23
27
31
27
28
26
38
23
24
32
42
26
24
20
24
21
25
19
30
24
24
19
22
30
24
24
21
18
25
25
22
28
35
29
23
20
18
20
28
27
15
15
12
20
21
23
27
25
26
22
22
29
23
20
20
13
7
7
9
10
8
7
7
4
11
12
6
7
6
12
11
9
8
10
9
11
15
6
12
4
11
9
4
14
9
11
8
8
9
7
9
6
5
8
5
7
15
10
11
48
50
37
38
29
45
33
41
34
43
47
24
31
30
25
27
42
18
26
24
30
28
28
36
28
31
32
38
27
27
28
25
34
35
22
28
29
34
20
27
18
19
20
18
22
22
26
33
28
22
24
25
31
21
30
20
21
16
21
20
22
22
23
26
28
18
19
21
28
32
20
23
28
17
18
21
20
23
26
19
25
30
26
18
19
19
27
28
22
27
28
26
13
25
20
22
25
24
21
25
27
22
22
33
22
21
20
23
22
31
21
23
26
24
30
33
27
22
20
36
113
112
112
85
87
74
72
59
54
65
61
65
61
67
48
41
47
40
42
35
33
30
42
41
33
49
41
24
33
34
27
27
30
22
26
18
25
24
22
21
26
14
23
27
18
13
20
27
18
20
20
18
19
23
15
23
21
19
14
22
17
20
8
19
11
18
14
14
11
14
24
18
13
25
20
25
20
20
16
17
17
14
16
18
15
13
16
17
17
17
17
15
14
18
12
14
14
18
16
20
13
19
13
16
8
21
18
16
14
19
14
13
17
12
14
15
18
18
14
33
155
127
123
102
91
91
98
81
70
75
74
62
75
74
48
70
54
50
52
41
41
47
40
41
44
45
28
40
42
37
44
24
26
42
36
36
25
33
30
32
22
30
33
24
33
31
22
33
17
21
29
34
29
19
25
36
30
30
21
25
26
24
32
24
34
26
27
25
28
24
25
27
26
19
26
26
23
26
23
32
20
26
22
33
23
19
39
25
27
31
21
26
21
18
21
18
22
27
17
31
20
21
27
20
28
26
27
18
30
20
23
18
21
30
28
21
18
30
27
20
10
10
7
10
11
13
8
11
12
14
9
9
10
6
5
12
9
8
10
14
15
14
7
11
8
7
6
13
8
12
9
11
7
6
6
7
11
10
12
10
8
17
3
16
13
9
7
18
52
42
37
47
41
47
38
31
27
28
39
25
29
41
18
38
37
33
40
30
38
31
32
37
28
26
32
22
21
25
25
31
24
21
21
31
26
31
28
27
21
24
28
23
27
25
24
25
22
24
18
31
33
24
19
29
31
24
19
32
25
35
28
22
23
28
17
26
24
24
25
20
24
27
19
32
39
16
16
26
40
27
27
15
30
37
25
29
17
22
21
31
31
24
32
24
21
18
23
20
25
27
31
14
21
24
18
32
24
36
16
24
37
22
21
19
20
26
18
48
110
96
81
92
98
78
64
71
72
67
55
63
54
57
58
48
60
54
34
35
42
29
45
29
36
31
25
31
39
34
37
26
33
17
21
18
30
20
18
27
21
24
21
17
20
19
22
21
20
21
17
20
20
16
22
26
24
22
17
17
13
14
21
26
28
14
17
16
19
19
13
13
21
11
15
14
17
13
13
12
14
11
14
12
16
19
16
14
20
11
21
17
13
12
14
18
14
14
15
13
14
14
19
17
11
13
15
17
15
20
12
19
22
19
14
13
14
17
21
41
122
99
102
93
83
86
66
74
84
72
60
89
64
63
49
66
61
64
55
51
47
48
46
33
38
37
47
52
28
37
37
36
37
34
36
43
30
39
37
30
32
31
21
31
27
19
31
29
28
29
21
22
21
19
20
19
21
28
27
16
22
38
21
22
20
24
18
25
23
25
24
28
26
30
23
26
25
17
25
22
23
31
27
26
27
20
30
33
26
22
30
16
18
28
25
31
30
25
21
16
27
20
24
29
26
16
30
21
16
22
38
33
24
29
38
24
16
25
18
18
10
9
9
18
11
9
7
4
10
6
11
11
8
9
13
11
3
3
9
5
8
8
7
11
15
4
13
9
6
9
15
13
8
9
13
8
9
6
7
15
11
9
8
9
6
16
11
11
8
8
13
23
55
49
43
39
44
40
40
35
36
47
42
32
44
34
41
32
31
33
26
22
22
26
35
29
24
29
19
29
29
27
28
30
18
28
25
26
20
26
26
21
20
24
20
24
21
25
21
33
27
21
23
24
17
26
30
20
35
23
29
24
26
23
22
25
29
18
19
28
26
24
28
23
21
29
21
29
27
21
26
24
26
24
25
24
26
26
19
25
23
19
22
32
28
22
20
27
23
26
24
22
25
15
21
29
22
19
25
21
29
18
25
15
29
25
35
16
25
30
25
47
111
101
99
74
82
85
90
90
72
55
56
52
53
48
46
61
48
57
34
47
52
56
44
36
31
42
43
37
26
32
23
29
15
31
33
32
21
26
26
22
19
21
19
19
25
26
17
29
14
22
22
14
12
15
16
25
19
17
19
15
22
18
11
19
9
18
14
21
19
28
26
11
11
12
19
15
15
12
12
24
14
13
14
14
14
17
18
16
21
13
21
20
16
14
20
13
16
16
15
18
19
18
15
16
12
23
13
13
14
22
13
14
11
22
16
15
15
14
16
38
140
135
105
106
79
90
78
68
71
71
62
61
71
65
78
59
51
45
60
61
46
38
34
45
46
43
32
36
28
33
35
35
37
29
36
16
31
30
40
31
24
33
22
35
30
27
30
36
26
29
34
25
27
17
32
29
35
21
24
24
22
20
24
22
20
26
20
31
28
29
24
24
26
18
26
24
23
27
34
30
24
23
20
24
16
22
28
25
19
27
22
31
21
22
31
23
28
25
29
32
28
36
29
22
24
15
21
20
33
26
19
17
19
23
23
27
34
30
20
20
11
14
6
9
8
10
6
10
6
9
15
10
12
8
12
5
13
7
10
11
11
4
17
8
8
8
10
10
10
10
2
7
9
14
10
12
9
7
14
11
11
6
14
4
9
9
11
3
9
11
11
9
8
11
11
12
54
55
44
50
58
29
40
33
28
36
33
41
29
30
27
22
37
27
42
27
35
44
31
28
23
23
34
23
19
30
43
20
27
21
21
11
31
23
28
33
16
19
31
23
27
28
21
23
19
22
25
27
24
16
24
29
20
22
30
25
23
19
26
19
19
29
18
25
27
23
28
19
24
26
29
28
23
20
25
24
25
22
25
19
31
23
30
20
22
20
26
23
20
38
15
19
22
20
23
18
18
17
20
26
19
20
23
25
24
28
20
34
26
29
17
17
19
31
21
44
118
112
101
94
100
84
72
64
64
59
59
57
58
54
59
48
44
47
53
50
45
41
45
32
32
36
27
35
24
33
25
20
26
39
26
27
19
18
15
19
17
31
20
14
23
14
20
22
24
22
26
11
10
17
16
12
23
15
24
27
16
16
24
14
15
16
14
14
19
13
19
14
19
16
17
13
17
16
11
21
15
20
14
13
15
14
16
14
19
17
16
14
17
11
12
17
15
11
12
12
12
16
16
19
8
11
18
16
17
12
13
16
13
21
18
16
18
19
22
21
136
113
107
117
89
110
95
99
76
67
75
77
72
73
63
63
51
53
54
46
46
42
45
44
40
39
48
34
45
40
41
20
26
25
30
27
30
22
26
32
38
33
20
33
24
25
27
32
31
32
27
29
29
26
24
28
17
22
24
30
25
18
25
27
33
22
18
25
15
32
40
21
34
22
27
28
24
26
22
19
16
32
20
27
25
26
20
25
23
29
20
24
22
21
25
23
30
19
22
26
21
16
23
32
26
26
24
23
19
19
18
21
25
24
23
28
25
29
24
32
9
8
11
9
7
6
7
10
7
11
10
8
10
15
7
9
7
9
18
9
7
8
11
10
17
6
5
4
8
12
6
9
9
6
13
10
14
8
13
8
9
10
7
11
13
18
4
10
11
11
6
6
12
5
6
6
5
7
12
22
59
47
49
62
37
44
38
47
39
37
38
28
33
25
46
37
29
36
20
35
30
24
31
22
23
24
36
23
24
28
27
35
31
29
22
21
34
21
21
19
27
21
26
32
30
24
27
14
23
22
24
26
21
25
25
22
31
17
18
21
22
21
17
27
20
24
35
19
21
24
24
19
22
21
15
25
30
20
27
18
35
17
23
21
22
14
22
26
26
26
23
25
26
27
15
27
25
23
24
25
24
21
24
18
27
20
21
28
21
22
17
21
17
22
22
17
25
30
25
49
131
82
110
104
107
84
84
67
68
73
65
56
36
50
53
47
39
42
42
49
52
36
30
45
33
27
38
34
28
38
27
28
34
38
28
20
30
27
27
20
25
20
23
25
19
32
24
26
21
21
23
17
25
17
17
29
18
19
18
20
21
14
14
17
25
17
17
16
13
21
23
13
14
21
11
19
23
21
14
19
14
19
20
14
15
19
24
10
19
9
19
18
13
17
17
17
8
21
17
11
23
17
16
12
15
11
13
7
13
16
7
12
21
17
19
18
17
18
14
44
141
114
115
110
94
90
81
81
80
73
73
56
69
56
54
70
53
60
52
45
44
53
40
58
47
37
54
30
41
41
27
29
34
29
38
34
37
28
27
30
27
27
22
29
29
28
25
29
16
29
24
37
30
24
29
18
28
29
36
30
20
19
27
26
25
23
20
27
24
27
20
28
31
21
32
25
24
28
24
17
17
26
16
36
25
28
29
25
24
33
25
24
20
27
23
19
17
30
20
17
27
20
23
20
17
19
21
31
29
24
20
21
26
26
21
33
21
28
15
20
9
8
15
7
9
10
14
7
11
5
9
7
8
7
3
13
10
15
6
15
11
10
9
12
15
9
12
7
14
13
11
13
10
4
7
17
7
7
9
7
6
11
12
9
11
7
4
13
6
5
7
10
7
10
11
10
8
11
5
10
13
13
7
20
69
49
36
40
45
28
40
48
42
43
35
41
37
33
27
42
40
32
34
35
35
33
27
24
24
34
33
22
30
23
28
39
31
37
26
33
22
28
27
28
26
22
27
18
24
27
17
24
22
27
18
32
24
21
20
33
29
24
28
18
27
28
23
29
26
22
32
22
29
23
25
24
22
29
28
13
21
23
14
32
14
27
26
23
24
21
21
25
24
22
22
21
32
23
29
24
20
19
23
26
26
15
17
28
25
18
15
24
30
12
18
31
30
22
21
20
22
20
30
45
101
116
99
74
92
76
78
82
69
74
58
53
61
61
53
47
47
53
41
53
40
39
33
36
27
25
36
36
35
29
31
32
29
25
33
25
26
23
23
21
22
22
17
23
31
18
22
20
23
22
15
18
25
13
21
16
11
23
18
9
19
22
14
18
10
25
16
21
19
25
16
16
15
10
15
19
13
13
20
21
13
13
23
13
14
14
18
16
12
14
17
13
7
20
21
13
14
16
19
21
14
9
11
12
11
14
19
16
18
11
16
13
14
19
18
20
13
17
9
43
141
94
110
98
109
84
64
80
81
68
75
67
63
59
50
64
72
57
53
55
48
39
45
58
46
35
37
35
29
34
38
39
27
29
31
35
25
37
35
32
36
24
31
20
37
27
26
28
30
22
25
29
23
22
34
21
27
28
24
25
31
24
22
19
23
27
24
35
17
26
26
30
32
16
21
24
20
33
17
25
27
27
34
23
24
27
21
27
17
17
20
25
23
20
22
31
21
18
19
21
22
16
19
24
17
22
35
28
19
22
24
23
15
22
15
17
28
22
23
14
7
10
13
5
12
17
9
9
8
9
9
7
8
5
6
12
8
7
10
12
7
12
10
6
3
10
16
5
11
8
6
11
7
6
9
10
9
6
11
12
5
13
7
9
12
12
12
10
10
7
15
5
6
8
10
10
14
10
7
9
15
7
7
8
8
5
8
22
61
40
51
31
41
38
44
35
38
38
38
27
38
32
36
29
34
34
28
36
29
29
28
34
40
27
26
22
33
19
27
24
31
34
15
25
16
29
25
31
26
22
21
25
21
19
31
24
23
26
16
24
19
22
18
27
26
29
21
26
23
22
30
19
17
16
22
19
20
20
21
24
25
23
14
28
23
25
15
26
25
34
28
24
19
26
29
25
28
22
25
27
24
32
23
17
25
18
21
24
29
24
22
27
25
26
28
26
27
31
20
21
25
27
21
26
27
27
21
38
127
80
101
93
72
83
67
58
71
64
63
49
58
69
45
32
40
52
38
49
42
37
29
36
37
25
39
29
34
26
31
24
30
28
19
28
35
24
23
20
30
18
22
15
18
20
30
22
22
20
21
20
25
26
19
10
11
18
16
16
25
17
15
21
9
11
12
21
10
16
22
16
15
16
21
12
8
21
19
14
21
17
21
14
20
19
12
16
17
15
10
18
19
14
15
19
14
18
11
14
16
10
15
22
19
13
17
16
16
21
15
19
18
16
13
20
12
13
16
48
136
109
92
77
96
93
91
80
62
64
73
56
54
58
63
52
74
71
46
59
47
46
52
41
35
49
37
39
36
27
30
33
41
38
33
24
29
36
40
41
30
30
28
29
26
32
28
39
24
24
31
25
20
31
20
24
32
17
28
28
27
34
30
33
32
32
24
24
27
25
29
29
33
20
25
18
28
33
25
22
24
27
29
17
19
25
27
20
19
20
24
22
23
19
14
22
24
14
19
23
19
23
19
24
28
22
27
25
19
28
23
26
24
27
21
22
35
24
29
23
11
12
13
16
10
10
11
12
10
7
9
6
13
13
9
12
12
8
11
9
11
9
11
12
14
10
7
7
4
11
12
12
15
7
13
8
10
8
11
13
7
8
8
5
16
12
10
9
9
15
16
9
8
13
11
11
9
14
13
10
6
6
9
13
10
14
6
6
7
3
7
8
56
62
49
44
45
49
59
46
45
41
39
34
37
34
37
37
36
39
37
35
29
28
25
35
23
22
29
37
26
12
24
25
35
20
25
23
26
24
27
23
24
26
24
16
23
30
19
26
27
25
20
29
23
29
30
27
26
28
22
25
29
21
23
20
21
27
38
20
29
20
22
28
29
17
22
17
28
31
31
22
27
24
28
29
28
24
20
28
18
17
27
31
28
19
20
33
22
24
25
18
16
29
26
29
35
24
17
26
17
25
17
24
24
20
21
22
24
23
21
39
125
113
101
103
77
74
88
84
71
68
57
64
66
42
59
48
45
43
48
32
45
44
37
28
36
26
30
29
33
35
22
20
24
27
25
25
24
16
19
20
21
18
21
22
19
19
20
24
19
20
14
26
15
20
16
15
26
12
18
21
18
23
15
23
13
19
22
22
17
15
16
27
24
16
16
17
19
16
20
11
17
14
16
20
6
16
16
19
23
14
22
19
17
10
24
14
15
16
22
10
20
15
20
24
13
16
14
21
18
15
14
11
15
21
13
16
23
12
10
31
120
89
93
96
89
84
93
79
79
74
61
56
51
61
50
64
53
49
49
52
54
47
45
55
39
44
50
34
38
34
41
43
25
41
34
38
26
29
17
28
38
27
31
34
31
22
42
23
27
28
32
23
16
25
25
23
24
26
28
15
28
21
28
23
17
18
29
20
25
27
37
26
27
24
23
31
24
24
24
23
17
24
28
30
19
26
24
26
28
31
28
27
27
23
18
28
27
25
22
20
21
25
23
31
18
23
21
24
34
20
21
20
24
42
22
25
33
23
31
29
14
7
10
11
6
8
6
15
15
15
15
13
10
7
13
15
11
8
7
8
7
7
5
6
13
10
8
11
7
10
8
9
10
9
14
13
14
12
10
18
7
9
13
13
9
11
13
6
10
16
10
10
8
11
6
11
12
11
8
11
10
4
8
7
20
12
12
11
11
13
6
4
16
13
13
18
56
49
42
55
49
53
38
36
37
45
42
44
43
42
30
33
27
44
41
25
35
32
22
38
35
26
20
29
30
31
22
31
18
21
28
24
33
24
30
28
23
29
25
28
22
24
22
27
21
29
25
36
27
24
18
25
23
25
29
29
27
35
24
20
24
29
24
24
24
27
26
23
22
35
41
26
21
30
20
21
25
20
29
23
18
16
24
29
30
31
24
37
25
23
31
30
18
21
20
33
20
16
20
32
27
21
20
23
26
27
22
28
29
27
13
30
18
26
26
41
133
97
93
96
85
92
74
76
70
59
61
55
63
52
48
46
38
46
35
38
50
47
52
41
38
38
33
23
34
33
32
33
26
33
29
25
21
24
22
30
22
14
16
23
21
27
20
17
25
13
18
11
20
16
18
25
18
25
16
23
17
15
14
16
13
17
10
13
17
10
12
10
25
14
12
24
16
16
17
19
16
17
12
12
13
16
15
18
18
15
14
21
13
15
23
15
15
13
20
14
24
21
19
21
20
17
12
14
13
16
20
21
12
10
11
16
12
12
16
38
156
123
97
93
108
81
82
78
73
80
75
81
67
67
65
59
56
49
46
44
32
50
55
41
39
43
37
54
40
46
37
38
37
29
30
25
33
48
23
30
33
26
21
35
31
25
27
29
35
29
24
32
37
28
24
20
20
23
28
24
18
35
27
33
31
32
28
22
18
22
28
26
27
23
25
24
22
27
22
29
26
36
31
17
29
28
14
26
19
19
28
24
29
26
16
20
33
19
21
17
27
25
28
21
19
25
25
25
15
19
14
21
22
20
19
25
31
23
21
26
13
9
11
12
10
8
14
10
7
12
14
9
5
12
16
7
10
9
10
3
11
10
10
9
11
9
8
16
12
9
16
10
6
7
4
12
10
8
12
17
9
16
12
18
11
11
10
15
11
12
16
7
6
10
6
10
7
15
14
6
6
4
8
9
10
11
11
13
7
10
12
11
13
8
6
10
14
13
10
25
51
59
51
66
52
41
48
53
35
43
49
23
57
31
35
34
41
46
33
32
33
27
29
34
27
34
35
32
29
23
16
31
33
24
34
35
27
29
22
30
24
29
20
26
31
28
26
28
20
23
35
27
24
16
21
24
21
28
22
26
23
29
24
27
35
25
27
29
26
21
22
19
22
30
26
26
26
24
28
24
21
21
27
29
16
16
17
23
32
25
33
24
25
19
20
25
17
27
24
26
14
27
24
21
28
17
25
22
25
21
25
16
22
23
20
25
12
29
27
40
149
85
65
94
87
100
62
69
90
61
55
64
49
59
48
55
45
37
49
48
39
49
39
40
39
34
32
40
24
41
21
26
22
32
30
31
19
18
26
23
18
25
19
19
20
24
20
28
17
18
18
19
25
20
21
18
22
16
27
12
20
16
14
21
16
14
16
21
16
16
15
18
12
26
17
18
15
21
22
14
21
22
17
10
17
15
18
20
14
9
13
21
14
23
11
16
20
10
13
17
18
15
13
14
23
19
17
13
13
13
10
16
20
14
22
18
11
13
20
36
133
106
98
95
100
112
73
85
84
74
74
69
66
63
64
55
46
48
51
49
45
61
49
52
47
44
43
45
34
38
36
29
32
40
33
27
30
33
34
43
33
37
30
30
28
27
32
20
24
23
27
27
18
21
20
20
21
23
30
26
22
26
19
28
29
23
23
18
34
29
21
25
29
18
41
31
23
27
24
20
26
19
20
19
30
15
19
25
26
24
22
32
20
17
21
20
24
29
33
27
34
23
27
24
23
22
28
24
24
18
24
25
26
28
16
25
26
23
25
28
6
11
5
5
7
12
4
12
9
6
8
9
7
7
9
4
10
10
6
10
6
3
9
11
10
10
11
10
9
9
8
5
13
16
11
9
7
9
5
9
16
14
7
10
9
6
8
8
8
10
13
10
14
7
13
6
13
6
10
12
13
17
5
8
9
14
9
9
11
13
5
8
12
6
11
5
9
11
17
8
11
7
11
12
58
59
67
44
53
47
53
40
45
42
50
34
45
30
35
39
34
28
30
29
34
35
34
27
49
30
38
31
27
30
22
34
22
32
23
23
23
24
24
29
28
25
16
25
34
28
32
15
27
32
29
29
19
31
21
19
28
22
27
28
19
15
25
26
17
22
27
28
27
23
22
19
25
28
30
29
29
23
23
30
17
20
22
28
24
20
31
30
29
19
30
25
21
30
27
24
24
25
29
19
35
25
30
22
30
23
22
33
15
26
23
20
21
21
29
32
17
24
34
66
137
107
84
99
91
103
67
75
62
56
74
58
57
54
58
54
56
49
43
37
36
35
29
23
41
31
34
38
33
31
25
19
28
27
26
19
27
18
24
24
24
20
28
12
20
18
18
24
31
23
16
14
18
16
8
17
19
10
28
19
14
16
19
21
14
18
10
13
22
15
20
21
15
14
16
20
22
14
17
17
16
20
18
14
13
16
8
20
15
18
11
29
11
14
18
16
8
17
19
12
18
13
14
16
15
16
17
18
11
19
20
11
19
18
12
14
15
11
20
41
162
92
115
103
112
93
89
77
76
72
73
49
61
61
65
50
54
63
38
45
44
49
30
46
37
51
46
39
36
41
45
38
25
41
26
34
29
40
37
36
29
29
36
27
27
30
37
26
22
32
27
33
23
35
25
28
21
23
23
20
19
35
20
35
24
29
33
20
26
24
22
18
30
39
24
27
26
32
21
16
19
31
24
14
26
28
18
19
29
24
19
32
26
11
27
18
23
27
35
23
26
26
24
29
28
21
14
29
14
18
18
22
15
22
20
23
20
20
28
26
20
5
14
15
14
8
13
5
12
8
10
14
20
6
6
5
13
7
12
15
7
21
8
9
11
13
10
13
10
11
10
10
12
11
8
13
13
6
10
13
6
14
7
14
13
9
7
10
9
7
16
11
16
6
8
8
9
11
14
11
8
12
8
12
7
7
8
12
12
5
15
10
9
14
14
4
10
11
9
8
2
10
12
8
6
16
8
18
45
53
53
35
44
41
50
41
45
35
30
37
38
34
37
28
36
39
25
40
28
36
34
30
39
28
27
32
35
27
28
29
26
18
29
20
31
27
25
27
34
24
22
31
23
27
24
17
20
21
23
32
22
20
20
25
15
22
26
23
21
18
19
25
26
23
23
25
29
26
22
23
23
26
21
25
27
22
19
25
22
19
20
27
32
17
23
15
18
24
20
22
27
18
16
22
19
18
21
22
24
22
27
23
18
24
16
20
26
27
29
34
18
33
21
26
14
21
25
49
136
95
91
101
93
62
102
75
71
68
59
65
61
58
55
42
61
41
37
34
44
28
45
27
51
31
31
25
29
30
34
23
33
25
21
32
21
35
19
21
27
21
26
22
16
21
27
14
22
17
24
23
18
15
22
12
14
22
16
13
26
20
18
22
25
8
16
15
16
13
15
18
17
20
15
12
16
21
15
12
19
19
31
18
17
18
19
16
19
20
11
19
15
24
15
20
22
14
14
15
12
18
12
15
17
15
24
18
14
14
21
22
21
15
14
18
10
20
16
37
98
107
115
95
73
97
83
80
68
84
65
66
53
72
52
48
56
57
54
49
48
37
40
43
42
27
35
44
42
33
33
38
25
34
29
37
34
29
28
27
31
27
22
27
34
20
28
27
35
32
24
29
21
26
24
17
34
24
17
23
29
27
28
33
18
33
25
31
26
26
26
19
23
24
29
23
16
20
25
26
27
20
23
26
23
22
18
28
25
22
19
20
25
32
25
25
29
23
19
21
27
22
24
25
16
18
21
31
19
24
20
17
26
23
25
24
18
30
26
15
8
9
10
5
5
13
12
8
9
15
7
9
11
5
5
12
9
11
8
7
12
6
17
4
16
5
8
14
9
8
8
7
6
12
8
7
7
14
6
8
11
12
7
6
8
6
5
10
11
15
7
8
9
14
8
6
13
7
16
7
6
10
12
9
9
8
8
6
12
6
13
8
7
10
8
11
15
10
11
13
14
9
8
7
14
9
8
10
11
7
9
13
73
61
50
53
63
52
35
37
48
40
37
36
25
33
41
30
36
42
31
34
37
28
34
33
41
27
30
43
39
32
33
23
26
22
29
35
32
29
31
29
25
24
23
22
30
29
17
20
19
22
20
27
20
25
30
21
20
24
20
20
22
29
21
26
30
24
23
32
19
18
23
27
28
26
28
21
17
25
25
27
28
24
26
19
25
21
32
21
23
24
21
20
18
17
28
27
27
25
21
21
27
26
22
23
25
28
23
31
24
24
28
21
17
19
28
29
24
21
22
45
139
99
87
89
73
92
73
71
56
62
74
68
57
48
49
30
50
61
39
41
43
29
27
40
31
34
31
30
27
36
27
28
24
22
37
28
25
27
22
25
26
24
16
32
17
16
22
17
18
28
24
9
26
20
13
13
13
11
11
22
9
18
21
11
13
24
22
16
24
17
15
10
16
12
13
19
27
20
14
15
17
12
14
17
23
21
10
15
22
12
17
18
13
17
11
17
29
12
17
18
11
13
8
10
18
14
15
9
18
18
22
16
13
16
16
14
15
19
22
30
136
106
101
103
112
101
76
83
92
61
55
91
69
51
62
71
52
58
50
48
54
47
38
60
55
34
36
38
41
35
26
46
31
34
38
45
27
25
26
32
35
39
29
32
20
35
23
28
22
24
28
32
23
28
24
23
21
24
26
20
27
27
26
23
23
25
23
18
21
20
21
19
30
23
22
25
14
18
24
26
20
28
29
26
22
25
25
20
28
26
28
19
23
28
21
28
13
25
28
20
22
23
23
21
13
26
20
25
19
21
19
19
24
20
31
31
28
22
32
18
12
10
3
11
7
9
5
7
7
9
12
14
9
9
17
11
12
10
9
11
8
10
8
11
11
10
6
9
5
14
13
11
9
8
9
19
9
14
6
7
9
11
11
10
14
7
8
5
9
9
6
18
7
14
9
9
7
10
14
8
10
12
9
10
8
5
16
11
13
15
13
7
10
14
12
9
7
11
7
7
5
7
10
6
13
4
10
5
7
12
7
6
10
13
5
16
65
57
43
43
37
38
46
37
33
44
51
31
32
40
34
29
22
33
37
32
37
39
24
31
27
31
21
26
32
31
24
33
24
26
28
37
28
29
28
29
25
27
24
27
27
21
35
24
31
23
24
22
26
26
19
14
30
27
26
24
32
26
26
27
27
26
24
36
20
21
25
19
18
26
25
31
26
20
22
23
29
24
23
21
25
29
27
17
27
22
29
29
24
21
24
25
24
17
25
34
24
29
23
20
23
26
19
19
30
24
20
13
15
22
24
32
31
22
23
37
139
107
105
81
74
88
71
96
83
67
63
74
52
56
58
60
37
57
52
47
38
31
27
41
50
38
40
28
29
33
37
40
20
20
26
31
30
18
22
20
17
21
22
25
17
17
22
14
25
17
20
19
21
21
18
22
26
18
10
18
20
14
13
14
18
17
13
10
21
15
18
11
16
15
16
17
12
12
19
12
19
15
11
9
12
15
12
21
21
20
13
19
20
17
24
8
13
12
13
18
22
20
15
16
16
12
19
24
16
13
16
15
13
19
9
19
17
13
16
27
137
111
102
102
84
101
69
100
83
67
75
85
69
63
67
58
61
52
54
30
52
42
43
44
38
41
42
44
27
43
49
35
44
34
27
39
26
38
34
26
40
31
34
24
31
25
26
21
28
30
25
28
25
30
25
27
28
34
31
28
34
28
30
21
23
32
31
27
24
26
21
22
21
26
17
29
29
31
26
25
21
13
21
18
35
26
32
26
20
29
30
18
32
20
33
23
20
29
18
18
23
24
19
25
18
19
20
26
25
32
25
21
24
24
25
26
30
15
27
15
7
16
17
6
14
11
10
6
6
12
8
12
8
14
10
13
11
8
13
6
11
5
10
12
6
19
9
12
6
13
11
8
10
8
9
10
6
9
10
12
17
10
5
9
10
6
9
10
9
7
11
6
7
9
12
15
11
9
6
6
8
15
11
16
7
8
15
10
7
7
10
7
11
9
14
10
8
15
10
10
7
4
14
9
13
11
6
4
12
5
5
7
12
8
13
9
8
15
8
29
56
57
49
43
43
48
46
34
47
32
42
35
35
47
43
24
38
31
33
27
23
38
33
30
44
32
34
37
28
29
24
31
29
25
27
20
29
24
32
26
18
16
33
34
20
28
19
23
30
26
15
23
23
18
20
31
26
18
20
21
22
26
21
21
20
17
21
28
22
23
20
26
20
26
23
19
22
30
18
30
24
16
19
18
19
25
24
28
24
26
20
25
14
23
33
29
18
31
22
13
28
17
31
30
21
25
26
19
26
27
28
23
24
30
22
21
26
20
16
53
127
87
106
92
85
81
55
77
76
72
61
68
59
56
47
56
43
49
51
50
35
42
35
35
25
29
39
28
32
27
25
34
21
34
27
26
27
28
31
22
29
22
20
20
24
19
27
18
19
25
15
36
21
16
22
18
14
20
18
17
19
13
13
17
23
18
10
15
15
14
15
20
20
21
18
19
23
20
12
15
13
9
17
10
15
13
15
16
20
9
19
16
9
15
14
14
31
13
21
13
18
16
12
14
19
10
14
16
13
14
16
15
13
14
14
13
11
14
20
34
145
104
100
97
87
101
108
71
86
79
62
64
68
66
55
59
72
49
52
50
46
47
44
41
57
43
46
49
53
26
25
37
38
33
27
36
25
42
31
33
19
28
33
25
20
28
28
27
21
19
32
29
17
34
25
39
17
30
32
29
22
20
21
29
27
35
26
20
27
28
26
29
29
28
22
19
32
20
23
32
21
22
24
20
22
26
16
21
24
27
26
15
29
21
21
26
28
20
21
34
25
26
30
21
19
27
22
25
15
18
30
21
22
27
27
29
20
23
25
25
8
11
8
6
9
10
7
9
3
12
14
10
7
10
13
7
12
9
10
8
12
8
10
10
8
13
9
8
19
8
11
8
7
4
12
9
7
17
9
5
13
7
10
5
11
9
22
12
8
8
15
10
10
9
9
8
6
12
14
12
10
12
6
11
10
7
9
7
9
8
4
12
10
16
10
13
12
15
8
15
8
7
8
8
15
8
14
7
12
13
8
11
6
9
7
7
7
12
9
11
9
9
9
17
70
53
46
49
48
47
40
47
41
63
41
45
35
28
35
42
31
35
38
23
38
25
26
34
32
36
33
27
24
25
27
30
29
23
25
23
21
37
32
26
37
28
28
21
29
22
21
27
27
29
20
34
27
20
23
22
22
16
28
29
31
13
24
27
20
28
22
21
17
22
28
26
33
20
22
19
23
25
28
27
18
20
17
22
27
14
26
18
21
27
20
29
21
16
29
33
24
29
18
26
20
18
21
24
19
17
17
35
22
28
22
30
30
24
32
33
29
26
25
44
120
111
98
81
101
86
74
79
64
55
61
65
53
55
54
43
40
57
60
53
28
44
45
37
33
38
25
40
26
26
28
33
23
28
16
22
26
22
25
35
18
18
19
19
15
22
18
14
25
15
20
18
24
24
14
24
20
23
14
16
21
16
13
19
17
23
27
27
19
20
15
17
20
16
19
17
16
19
13
13
17
19
18
14
23
18
8
9
17
15
17
12
17
19
11
15
19
20
14
16
16
10
13
12
16
12
16
20
15
18
10
23
10
26
15
21
23
14
19
34
137
121
96
103
112
107
88
93
67
96
61
57
62
61
66
53
63
58
51
37
40
46
56
42
39
36
40
42
43
37
36
35
36
24
44
36
30
34
40
25
38
23
39
25
27
35
18
28
25
20
26
22
15
24
22
25
28
21
30
20
27
28
25
37
15
25
23
18
21
28
23
27
28
26
20
24
26
23
32
33
24
31
19
27
30
26
19
26
21
32
29
30
24
33
25
21
17
20
26
17
21
31
20
25
26
20
28
31
28
20
23
15
27
30
22
25
17
22
21
16
18
9
9
9
8
9
11
10
5
9
10
6
7
12
16
9
11
7
8
10
6
14
13
9
10
4
8
13
13
12
12
15
8
4
14
9
10
11
8
8
12
9
9
12
7
11
12
12
11
10
8
12
15
7
8
5
11
17
10
10
11
12
12
4
11
12
13
5
12
6
11
4
13
10
12
10
12
11
12
15
12
5
13
4
9
10
10
10
9
16
11
10
14
5
10
9
18
9
12
8
5
6
10
16
8
16
10
20
71
49
58
51
49
42
38
41
44
55
53
36
34
27
41
37
39
43
42
25
35
37
32
36
27
28
38
29
32
33
29
22
31
38
26
27
23
26
31
27
23
17
23
23
33
26
27
25
16
20
28
23
25
22
30
22
28
19
28
22
19
28
19
28
25
30
28
25
23
19
38
25
29
23
33
24
23
24
31
31
24
21
26
19
30
31
23
20
21
17
25
19
25
16
24
31
22
31
25
32
31
32
22
27
22
14
23
29
18
32
23
26
20
27
35
33
26
22
31
44
121
98
95
63
97
74
69
74
72
65
64
61
55
59
54
55
31
55
48
36
34
27
35
33
30
33
38
29
28
32
27
20
25
21
23
17
25
23
24
21
26
24
21
14
15
20
18
22
21
15
26
19
25
19
12
23
19
18
4
8
24
13
17
16
23
24
22
13
14
11
13
15
25
26
20
16
12
19
18
17
14
18
20
17
23
11
21
16
14
13
19
21
20
16
19
17
8
20
10
15
16
7
15
18
19
13
17
16
16
16
13
9
16
17
13
21
22
18
17
40
152
94
94
109
91
86
83
102
76
84
90
80
73
77
63
55
54
51
52
45
41
50
41
48
43
45
35
42
40
33
27
43
35
30
31
30
39
22
29
27
36
26
29
29
28
24
28
23
24
31
31
29
18
25
28
29
14
22
21
19
23
36
32
28
33
16
21
22
23
20
33
38
28
26
30
28
21
18
29
24
29
16
33
23
24
22
28
28
31
22
27
23
25
28
24
30
24
24
25
25
22
27
17
16
17
24
16
19
35
26
23
16
24
33
20
28
19
24
20
23
16
12
9
7
7
9
7
10
9
12
10
6
6
9
12
6
9
10
12
8
4
5
6
8
8
8
6
7
8
13
8
10
5
12
13
11
10
9
11
14
5
7
12
13
7
7
12
8
8
8
11
10
4
5
7
10
5
5
7
7
10
8
9
10
9
9
6
7
11
6
5
10
9
8
16
7
7
10
5
14
13
5
6
6
5
9
10
7
17
10
9
3
12
5
12
7
12
10
16
9
9
9
7
7
12
14
5
8
10
16
9
14
76
56
42
60
60
50
38
47
33
39
34
39
32
34
39
30
27
35
31
33
26
34
27
34
41
34
20
17
19
30
33
28
22
19
24
24
28
36
33
29
16
27
15
28
22
21
22
25
27
23
27
27
22
20
25
33
28
22
30
33
35
23
24
25
20
22
30
21
18
30
28
18
21
29
26
21
25
19
26
23
19
19
22
23
26
27
34
27
27
35
28
24
16
13
24
19
26
29
26
26
21
25
24
24
29
12
27
34
20
29
32
31
32
27
22
20
25
29
26
44
137
87
90
74
84
75
66
56
66
62
67
73
66
56
48
51
57
59
52
35
42
34
28
36
32
34
28
29
32
35
38
31
31
25
20
26
17
23
19
23
23
19
20
19
21
24
19
18
24
17
26
12
24
13
14
16
13
17
11
17
18
23
19
13
21
14
20
14
21
11
17
19
10
12
31
25
25
16
15
13
19
18
20
18
22
11
14
22
11
15
17
17
23
21
17
16
11
17
11
22
18
12
12
21
12
19
18
16
12
16
15
15
13
14
9
11
9
14
18
39
140
131
123
100
84
78
75
87
82
60
73
58
70
50
59
52
55
55
60
42
52
61
55
33
35
42
41
33
45
41
37
37
42
39
26
35
34
41
26
31
31
35
36
30
35
23
29
32
29
24
25
33
33
29
29
30
26
31
31
25
29
30
28
22
27
25
21
18
21
25
22
33
32
26
37
15
17
35
21
26
27
24
24
22
26
16
26
31
17
17
22
28
21
23
16
26
24
33
28
31
17
19
26
25
25
17
27
29
36
22
24
18
28
26
27
22
25
23
25
19
12
6
9
14
3
8
12
7
16
8
10
10
4
9
9
9
11
12
10
11
13
7
11
10
7
11
12
9
7
15
8
8
7
9
6
12
6
12
11
6
8
12
11
13
13
7
12
11
10
9
13
13
9
10
10
5
10
17
11
15
12
12
6
18
9
12
7
13
8
12
12
12
7
6
10
6
11
7
6
14
5
12
14
15
7
6
9
6
4
9
12
11
10
5
7
7
5
6
14
12
13
7
10
8
15
9
16
13
5
8
9
8
8
19
12
14
68
52
50
66
42
54
48
44
28
47
35
44
32
36
27
30
39
50
39
31
33
33
28
32
34
30
25
26
34
25
31
21
25
25
29
23
30
23
31
21
23
15
27
38
26
15
20
22
31
30
21
15
29
28
24
24
24
25
20
24
26
24
24
23
31
27
22
19
21
26
18
23
24
22
29
30
25
24
28
20
13
28
19
23
24
19
24
27
33
23
28
21
30
10
17
24
26
27
29
20
29
22
24
23
26
29
29
22
18
21
17
30
28
27
22
23
26
23
18
64
135
98
95
88
89
91
67
74
73
44
68
46
77
68
52
55
60
46
48
40
40
45
30
29
33
32
30
31
33
24
30
28
18
20
38
24
28
21
23
25
18
28
22
22
24
16
15
19
18
16
25
24
22
16
25
25
11
19
24
13
19
22
23
19
14
21
14
13
12
19
11
16
19
18
21
18
11
17
18
25
21
22
16
12
13
14
19
19
23
10
16
18
21
19
19
17
13
19
17
19
15
14
19
17
11
12
15
10
16
16
17
22
16
12
22
16
18
11
13
41
131
109
113
106
102
86
75
71
61
67
75
75
51
63
61
68
46
51
53
59
56
62
49
48
42
40
40
37
49
39
38
46
41
32
46
36
27
35
39
23
31
26
32
27
32
33
32
28
25
31
21
31
32
29
33
30
23
28
21
27
21
21
23
30
18
31
24
19
27
26
23
33
17
29
23
20
19
33
26
26
33
24
29
32
18
31
19
29
24
23
23
23
32
22
24
23
17
21
23
27
21
31
13
25
24
24
19
18
31
25
23
13
18
18
23
25
20
29
23
25
12
11
5
10
6
4
17
8
13
8
5
9
9
10
8
7
10
8
7
9
7
7
9
4
4
8
6
8
10
12
6
8
16
10
12
10
5
10
11
9
7
10
15
9
13
6
10
6
11
5
9
3
12
8
16
8
17
10
9
15
9
10
12
14
12
10
14
5
9
10
8
6
10
9
11
6
7
12
7
10
9
8
9
12
3
17
13
10
10
12
14
11
10
5
7
12
10
10
18
11
12
8
12
9
12
4
13
14
11
7
11
4
5
9
9
10
9
10
12
25
72
65
43
61
55
42
55
49
41
44
53
35
33
31
34
42
35
31
30
34
36
36
32
28
38
29
30
26
32
28
35
22
20
29
28
21
22
22
22
27
26
30
21
25
16
36
33
20
16
26
24
28
25
27
22
18
22
42
22
26
24
15
21
18
26
25
32
19
19
30
30
19
18
31
19
32
20
18
20
28
21
24
15
21
24
31
22
21
23
28
22
21
16
22
25
24
16
18
22
20
20
27
15
24
25
16
24
22
27
27
24
32
23
11
22
27
29
19
20
31
118
90
102
78
88
78
67
78
66
60
69
66
69
48
65
61
49
51
40
53
31
45
45
27
40
36
45
29
35
23
33
24
32
27
29
17
28
22
22
15
21
32
21
23
18
27
23
19
19
21
18
23
20
23
15
10
16
12
7
19
22
19
21
19
21
16
20
16
16
27
19
14
12
15
21
19
14
19
12
19
20
13
19
18
14
16
15
17
16
17
16
12
18
18
18
12
15
24
12
13
22
17
21
10
20
15
15
12
24
17
16
15
15
17
12
13
11
15
13
36
126
114
98
91
100
103
91
82
74
84
65
76
72
47
49
65
50
56
53
53
54
50
56
49
31
42
39
34
33
37
23
33
35
27
32
36
29
31
27
32
28
20
36
30
20
21
28
24
31
24
20
32
25
26
28
19
27
26
34
24
22
25
23
19
35
27
22
20
27
24
19
37
33
20
23
24
29
26
31
23
20
24
24
26
22
21
26
24
19
22
29
18
25
27
32
21
21
18
33
27
24
18
31
18
20
21
29
15
25
20
30
23
27
21
28
28
23
27
24
17
12
5
16
8
5
14
7
10
9
16
6
9
6
8
8
6
7
7
10
10
6
6
11
8
11
8
7
12
17
10
13
4
13
8
7
19
11
9
10
8
8
9
9
7
7
16
11
9
9
8
14
9
5
9
9
4
7
12
9
12
13
5
7
13
7
16
4
6
8
12
5
6
9
13
7
7
6
12
6
4
11
6
8
7
11
5
12
7
5
4
14
9
7
15
5
9
9
5
15
10
2
9
8
9
11
17
8
12
14
10
11
10
7
8
7
11
11
10
12
14
9
12
17
14
69
48
47
60
57
51
56
60
48
44
38
41
32
36
43
37
32
29
35
27
37
23
19
35
29
26
39
37
27
20
27
32
43
22
35
21
29
24
23
34
25
22
25
19
27
25
27
32
20
19
24
19
17
23
23
18
26
16
19
25
31
22
27
19
24
27
22
16
25
21
23
35
18
25
22
15
23
32
34
25
26
21
22
21
25
24
27
19
36
26
24
15
24
27
18
31
28
25
25
29
26
26
31
21
22
24
18
21
28
21
33
30
28
24
20
21
26
21
13
54
109
116
88
80
81
88
52
73
75
63
65
52
64
66
47
54
48
51
38
44
41
46
45
31
30
43
41
28
35
38
22
36
29
29
29
22
24
21
23
19
23
20
14
21
15
17
21
16
22
24
13
26
22
14
23
20
17
17
15
16
17
17
17
19
21
25
21
18
21
20
16
20
14
29
17
7
16
18
31
22
15
16
22
18
16
13
16
10
17
19
17
13
12
9
16
14
19
21
13
15
15
21
14
11
22
18
10
18
17
11
13
19
14
19
17
21
20
18
13
38
151
108
83
105
92
101
85
79
81
75
76
48
65
66
63
60
63
50
46
58
50
50
38
47
41
46
49
44
37
44
35
34
40
38
36
37
40
27
33
33
34
31
21
33
25
31
23
31
35
29
25
34
33
30
22
35
30
26
28
27
30
27
22
19
26
19
26
29
12
28
31
32
23
20
26
24
22
21
23
20
22
35
25
28
27
21
20
30
24
24
34
31
29
17
26
24
28
29
23
26
33
21
22
16
20
22
17
34
29
29
12
24
28
18
30
21
22
32
25
29
14
12
11
11
8
4
7
8
5
7
11
10
16
8
9
12
9
10
7
8
7
8
5
10
8
12
9
3
8
8
12
9
5
10
8
8
7
8
11
11
6
13
2
8
10
11
7
7
7
7
11
9
13
12
13
9
8
9
15
7
14
16
11
11
11
8
8
11
10
4
7
16
17
8
11
15
13
5
11
4
9
9
4
7
13
6
7
16
7
11
11
6
6
15
9
10
7
9
11
9
7
9
9
9
12
10
14
11
6
6
4
13
8
13
11
13
9
12
7
13
6
8
15
13
11
14
12
12
77
55
54
61
43
45
60
30
44
44
59
34
39
42
35
40
51
28
29
37
41
28
30
30
43
21
27
22
29
32
31
26
33
28
31
25
40
25
26
31
28
19
19
22
18
21
29
23
25
14
23
18
27
23
21
22
24
21
26
18
30
25
29
36
19
29
25
31
17
27
22
24
21
22
37
23
20
26
26
15
27
18
30
22
15
22
27
22
23
29
21
31
28
13
31
21
24
22
21
20
22
27
23
15
28
23
16
28
22
25
22
24
30
25
17
19
20
29
22
40
110
103
100
105
76
77
96
61
75
62
78
67
61
62
57
38
46
46
40
53
27
45
44
28
25
37
36
33
22
33
28
28
29
18
27
26
23
17
25
24
28
22
26
22
12
22
28
19
17
20
17
12
24
15
20
22
13
21
15
19
17
18
14
13
16
17
18
16
12
11
15
26
17
20
14
22
15
21
15
15
13
17
15
16
12
12
8
14
17
16
18
23
14
30
13
14
13
24
11
15
16
10
16
11
11
21
9
12
21
17
23
17
25
11
21
20
6
21
21
34
131
102
96
123
110
85
79
69
76
70
77
87
67
62
54
65
45
62
36
45
49
43
36
49
38
45
32
62
38
37
48
28
36
40
37
28
40
31
37
31
35
29
26
35
35
24
24
20
25
22
30
34
20
28
25
30
25
28
31
23
27
16
23
33
25
38
26
20
26
25
29
31
21
23
26
20
24
20
15
19
18
26
30
22
30
21
26
22
21
33
27
20
21
24
23
28
26
22
24
22
18
16
20
22
21
24
29
22
22
26
16
27
19
20
20
22
26
28
24
20
11
7
5
6
7
9
7
17
6
7
9
11
11
5
9
10
5
5
11
14
11
6
7
11
13
10
14
6
11
6
6
5
5
9
11
7
7
7
10
16
5
16
9
17
5
9
13
5
13
10
8
8
7
14
15
7
8
6
6
10
9
12
11
14
5
7
10
14
9
12
7
7
9
14
6
11
12
3
18
9
15
9
16
5
9
10
5
7
7
12
9
10
7
9
12
13
3
6
6
9
16
11
8
9
4
14
10
7
6
14
8
3
13
12
10
9
10
5
10
7
10
11
12
5
9
9
7
13
14
6
10
24
70
63
44
56
50
42
44
59
45
37
31
39
41
30
49
37
35
37
42
45
26
31
32
40
35
29
35
31
35
22
32
28
28
31
25
21
20
25
30
30
31
29
23
24
23
19
29
21
25
26
23
18
23
30
22
27
20
21
19
22
31
31
20
25
26
24
32
24
17
27
18
21
23
31
22
23
20
23
31
21
27
25
17
20
25
23
28
18
18
27
26
27
19
34
22
18
31
27
19
16
21
9
22
25
22
29
31
24
29
19
24
20
30
17
19
18
22
17
20
47
108
116
91
87
85
68
56
76
65
70
61
68
57
42
57
47
48
32
35
42
37
35
39
24
43
32
37
41
27
33
33
31
25
39
27
32
29
22
19
17
24
21
23
15
21
31
23
28
15
18
16
19
22
18
16
18
15
20
14
16
19
21
20
16
19
25
17
20
18
24
20
13
24
16
14
15
16
14
14
19
17
24
18
15
18
19
22
16
13
14
22
20
11
16
16
14
17
17
22
11
15
14
13
10
17
22
25
13
16
17
14
17
9
20
21
18
19
14
19
33
143
120
95
80
112
80
98
82
81
66
66
71
63
50
64
60
63
45
55
48
51
55
50
55
41
36
44
43
39
40
29
32
37
37
35
32
35
28
37
27
29
32
26
22
32
25
20
33
36
15
23
26
25
27
31
37
34
29
26
32
23
27
25
23
27
27
28
21
33
31
20
22
25
31
24
19
22
21
22
31
18
25
29
29
28
23
24
20
12
31
25
19
19
18
28
29
18
36
27
23
24
28
29
23
17
25
31
26
29
20
29
28
28
15
32
24
22
29
26
14
14
8
8
11
9
5
6
8
6
12
9
7
7
6
7
15
14
6
5
11
11
9
10
15
12
14
11
13
9
11
12
14
5
11
9
6
8
9
12
12
4
5
8
4
11
10
11
8
6
7
12
10
15
10
4
9
13
7
7
11
5
15
12
8
11
12
5
7
5
12
4
6
9
8
16
10
11
9
18
15
4
7
4
6
13
11
6
10
13
8
7
5
8
6
10
7
11
7
13
11
7
13
10
13
9
5
8
8
14
10
4
6
11
12
11
7
7
17
16
8
15
9
10
13
8
9
11
7
4
11
9
11
5
11
13
21
73
64
44
49
52
47
36
50
58
39
38
43
43
48
32
37
41
42
24
25
38
35
27
27
36
33
27
32
31
24
19
31
26
30
22
29
26
25
25
24
25
32
21
38
37
21
23
29
28
23
21
18
24
25
25
30
24
27
18
21
18
26
24
30
16
27
25
27
29
27
20
23
26
23
21
28
21
16
24
35
22
31
22
16
20
25
29
21
27
26
32
30
19
22
20
34
26
28
27
15
24
31
19
22
23
30
14
24
22
21
19
30
24
20
25
20
21
21
30
42
123
122
91
83
81
82
92
77
77
65
65
76
47
59
72
58
38
45
62
47
47
33
44
35
34
48
30
29
33
26
23
25
28
27
29
30
30
27
33
16
35
27
16
20
14
23
23
16
28
22
20
17
12
10
15
20
15
23
19
17
18
16
19
16
28
11
20
13
25
18
15
23
20
16
24
16
20
17
26
19
19
17
11
22
20
17
10
17
16
16
24
17
21
21
19
15
18
20
16
17
15
22
20
8
16
14
14
19
14
11
12
21
23
15
13
18
18
14
13
30
127
112
102
106
112
89
93
81
66
68
72
66
86
50
50
54
41
56
39
41
48
45
47
34
32
35
42
46
35
39
26
34
29
38
21
28
42
21
37
25
33
33
17
30
33
20
19
23
25
28
31
34
31
31
33
21
20
32
27
18
31
36
29
17
18
17
33
33
27
32
23
28
19
20
23
28
18
30
18
21
25
22
23
23
23
28
21
25
30
19
27
23
27
16
28
28
27
18
22
17
20
29
30
21
19
24
19
26
22
26
20
21
26
22
22
30
32
28
30
20
15
7
6
14
15
8
8
13
16
9
10
8
8
12
5
7
13
3
15
11
13
7
6
8
5
5
13
13
14
9
8
13
6
4
7
8
11
6
8
9
22
17
12
11
8
7
10
11
7
14
9
10
10
13
11
11
13
8
11
10
8
9
12
7
11
6
19
13
8
5
9
12
11
10
12
17
10
9
10
11
10
14
6
6
7
11
9
11
13
12
7
8
6
16
6
11
5
10
7
13
12
9
11
4
17
7
7
14
8
15
8
14
15
13
7
13
11
6
9
6
8
12
11
3
16
13
10
12
9
12
13
15
8
6
16
10
11
10
11
12
66
53
51
53
52
54
39
39
62
45
32
42
26
37
47
46
45
37
30
43
37
39
33
30
28
28
33
32
33
27
36
24
30
26
27
26
23
39
22
33
25
19
17
24
22
28
24
27
16
31
28
23
29
29
22
26
30
27
31
28
31
20
22
17
20
21
29
30
22
29
20
25
18
28
24
23
19
24
20
28
40
23
17
21
25
29
22
20
25
29
16
24
27
22
32
29
19
21
25
22
15
17
23
22
35
24
28
28
20
19
25
24
26
31
26
25
25
20
24
26
115
89
98
110
74
67
75
80
40
70
57
53
51
50
57
58
56
49
48
44
38
28
39
32
33
30
36
26
31
32
21
28
17
28
26
32
25
25
27
21
16
23
14
18
22
20
15
16
29
24
15
21
14
22
18
12
15
22
20
7
10
15
9
18
22
10
14
16
15
16
22
19
18
17
16
14
17
15
20
16
27
22
13
15
10
12
15
17
17
7
11
13
14
20
10
11
11
16
16
11
14
20
15
10
11
8
16
13
13
21
24
13
19
21
17
22
16
15
22
36
165
102
96
96
94
92
83
77
73
75
80
72
65
59
72
55
53
62
49
50
52
42
50
43
42
35
48
48
38
35
42
33
35
39
24
29
28
28
35
36
26
27
33
39
36
23
29
24
31
23
21
26
33
27
18
25
26
22
23
30
25
31
29
26
30
14
25
27
18
31
20
29
34
32
27
20
16
18
23
31
27
20
26
31
30
33
21
23
28
21
22
18
20
19
34
28
21
27
28
23
19
25
27
23
21
27
20
31
17
20
32
21
33
27
20
24
26
30
29
28
14
7
9
9
8
9
6
11
16
7
10
6
8
14
7
6
13
6
9
10
9
7
14
5
6
8
11
10
19
15
11
16
15
10
11
13
14
10
11
7
8
9
5
4
6
8
7
12
10
9
11
11
10
12
9
13
12
11
13
10
9
7
11
8
14
6
11
10
10
9
9
8
2
12
10
8
11
11
6
3
16
12
15
11
10
12
8
12
11
5
9
2
6
6
7
12
10
9
13
6
13
10
12
6
11
10
11
7
11
9
9
9
14
9
7
17
7
7
10
12
17
8
6
6
5
11
8
2
9
19
7
12
9
12
12
14
7
11
12
8
12
15
12
19
87
54
53
46
43
52
49
40
47
46
39
46
41
42
26
30
38
26
33
30
27
33
36
30
31
34
25
31
41
28
37
26
27
33
25
36
27
17
16
20
35
24
24
17
23
18
21
21
33
18
23
17
24
22
29
18
23
29
27
25
34
32
23
26
27
22
20
20
21
16
26
27
25
24
28
34
25
19
25
32
21
23
19
31
32
24
23
25
15
18
35
24
15
31
19
21
26
28
20
22
22
26
29
22
21
20
27
23
34
24
24
22
24
27
27
16
31
35
28
45
117
97
88
89
82
71
63
73
90
49
60
54
53
57
58
57
44
66
46
30
48
44
30
35
25
41
38
34
33
26
23
33
26
20
27
18
19
33
20
19
24
36
20
25
20
19
29
21
18
18
23
15
23
24
18
22
14
16
18
21
23
16
16
22
14
14
19
17
20
16
30
21
10
20
10
27
14
21
22
18
19
15
17
14
19
15
12
14
17
19
20
13
18
20
14
18
16
16
20
13
18
12
18
12
19
16
15
16
13
16
20
14
16
10
12
20
12
19
8
30
127
109
107
106
97
87
94
79
73
70
66
78
59
55
55
54
62
55
59
47
60
56
48
35
47
38
50
37
44
38
34
39
32
27
28
30
31
29
31
40
22
24
32
36
39
29
19
22
21
29
31
33
34
28
31
25
25
24
19
22
27
22
24
22
26
23
28
27
28
24
29
32
22
33
22
29
25
23
19
29
30
23
26
25
33
18
23
27
28
19
17
11
27
25
19
20
29
18
21
23
26
24
20
13
18
33
23
26
20
27
22
17
30
24
30
22
25
17
25
22
4
11
13
9
12
10
8
5
15
10
4
9
8
9
7
12
14
6
11
5
9
5
6
9
4
11
11
11
11
8
7
7
7
7
18
7
14
9
18
11
8
15
6
8
13
12
12
6
7
10
12
8
9
7
9
9
16
10
13
12
10
8
16
8
9
7
15
10
10
11
7
13
6
13
12
14
12
12
7
8
9
10
12
10
12
10
7
7
12
10
17
6
10
15
7
6
7
5
7
14
7
9
11
7
9
8
5
12
13
12
12
11
7
11
11
8
11
17
9
14
2
8
6
10
10
7
9
13
8
11
13
6
16
10
8
13
11
7
12
11
10
8
12
7
14
15
10
19
62
59
59
59
44
48
40
51
51
43
42
54
40
34
30
39
43
28
37
32
40
41
29
29
36
30
26
20
26
20
33
36
32
25
26
21
33
29
29
23
24
28
19
24
23
22
30
21
31
20
20
20
19
26
31
22
20
25
26
29
29
34
22
23
27
24
19
23
30
28
26
30
16
28
26
25
29
30
23
31
18
28
28
16
21
23
17
30
21
23
32
19
14
18
22
31
34
21
16
30
24
26
24
16
27
24
16
25
31
29
30
29
28
23
21
17
28
29
26
47
111
106
97
101
85
77
60
75
76
71
66
68
49
57
37
49
49
36
48
51
32
34
34
35
40
30
31
26
33
23
26
37
27
25
41
23
34
23
22
24
15
17
25
18
16
17
22
19
15
27
18
16
18
20
16
24
13
21
28
13
9
16
13
16
21
19
24
18
17
20
23
21
14
12
20
10
16
19
18
19
19
19
17
10
14
22
18
20
15
14
17
15
19
13
16
16
12
20
15
13
13
19
12
15
17
17
22
14
16
12
24
21
14
18
13
7
14
22
16
43
134
97
112
107
98
82
72
75
77
77
76
70
73
55
64
57
43
60
57
47
47
41
42
49
41
38
40
39
31
30
35
33
44
38
30
33
38
35
34
27
35
30
30
22
26
39
22
32
24
26
26
22
21
27
29
29
21
18
23
29
36
21
28
18
21
32
22
20
24
24
20
23
21
27
24
23
16
25
31
26
20
17
28
24
16
30
33
23
20
25
25
29
30
25
24
21
27
29
19
28
23
25
22
28
27
23
20
15
25
17
23
24
24
18
34
25
25
17
23
25
8
11
6
8
15
4
8
15
9
12
8
5
5
8
3
4
8
2
11
8
10
9
6
10
11
8
6
8
6
9
7
16
7
2
14
8
9
10
11
4
10
8
6
12
10
3
11
12
11
7
10
7
8
7
13
15
9
10
6
8
11
12
16
12
5
16
13
9
10
9
7
3
4
8
7
13
5
7
6
13
10
10
6
10
4
4
7
9
10
10
10
11
14
12
12
8
13
6
13
7
3
10
10
14
12
10
11
6
9
8
5
9
8
11
8
7
13
12
4
7
4
5
12
9
10
5
11
18
15
11
13
8
5
17
11
7
5
11
19
10
8
7
7
12
9
10
6
17
15
8
13
17
64
62
67
60
63
62
42
41
49
38
44
48
55
39
57
31
26
39
37
27
38
31
37
31
32
22
27
34
26
30
32
27
31
28
32
20
22
22
27
27
31
23
29
26
25
24
27
23
21
28
28
22
26
25
25
18
22
27
24
20
27
25
24
24
20
25
29
17
19
24
28
27
33
18
19
23
28
28
17
21
22
27
29
28
15
19
16
22
23
20
25
21
18
18
23
32
20
22
22
16
29
20
24
19
24
27
24
20
24
27
26
21
31
25
25
24
20
30
24
40
104
102
104
80
78
81
88
71
76
52
63
53
54
57
46
65
50
51
56
49
42
41
39
39
29
32
38
29
35
32
44
25
25
22
19
19
20
34
23
26
24
15
22
31
18
30
16
19
29
25
19
17
19
14
19
14
15
25
14
17
18
15
14
15
12
21
16
12
19
16
22
20
19
17
9
16
21
15
14
17
20
22
13
21
17
26
11
15
24
23
21
12
19
15
15
19
13
14
16
13
17
14
8
14
15
13
20
21
12
22
19
16
19
16
10
16
20
15
23
31
139
99
112
109
86
98
78
92
83
83
62
65
76
59
43
58
56
71
49
54
46
48
49
39
43
48
49
40
39
37
32
40
37
41
32
28
31
30
35
34
33
28
36
29
33
32
25
29
34
28
35
36
22
39
28
27
25
19
23
29
32
21
28
30
26
28
23
32
21
11
22
17
34
23
32
26
24
28
31
13
26
31
22
38
33
21
34
16
26
22
27
23
31
25
19
27
18
28
33
27
21
24
37
18
25
11
25
29
23
24
26
21
19
32
23
19
25
24
27
19
9
10
10
6
7
5
14
8
10
7
8
9
14
11
13
6
11
8
8
8
5
12
14
9
11
13
5
10
8
8
11
10
10
12
5
10
14
7
10
9
8
12
6
7
8
12
4
7
11
12
9
8
9
9
21
7
9
9
9
8
11
7
11
5
12
11
10
11
10
16
16
8
6
13
10
7
13
9
10
8
11
12
10
20
7
6
11
9
9
7
7
13
12
11
11
7
16
7
15
5
11
10
4
13
9
8
13
14
7
7
19
4
10
8
13
9
10
10
6
6
9
6
16
8
9
11
8
10
14
13
7
9
7
16
9
8
14
8
12
8
14
6
8
13
14
7
8
14
16
7
10
7
12
6
7
11
57
56
61
61
55
62
55
62
43
51
36
41
39
44
35
35
35
33
28
30
25
28
31
30
34
27
31
39
30
29
29
24
23
31
38
23
36
28
29
26
21
21
23
19
27
28
27
31
22
28
30
23
33
19
25
23
22
24
20
25
22
29
20
29
29
17
27
31
29
27
25
19
30
21
18
23
30
26
26
30
15
28
30
24
27
30
21
32
26
30
29
33
21
18
26
26
31
28
22
27
28
19
25
25
26
24
20
27
24
8
21
25
29
33
32
26
18
22
27
18
11
7
12
11
7
7
7
6
5
9
6
4
10
6
7
6
9
13
10
14
7
9
4
9
7
10
9
5
13
9
3
12
2
8
9
9
6
5
10
11
4
4
6
7
7
5
7
6
11
8
10
7
5
7
4
12
7
5
7
12
4
3
11
7
4
10
5
11
2
9
10
6
7
6
10
7
10
9
8
9
5
10
10
8
9
6
6
5
8
7
5
9
8
5
8
5
13
13
6
2
8
6
5
11
2
12
6
9
6
12
9
11
11
5
10
9
10
10
6
5
14
14
10
5
10
10
11
7
5
8
7
4
7
5
5
8
4
8
7
9
9
2
6
4
7
8
4
2
11
5
5
11
2
10
10
8
6
8
9
3
7
7
8
9
3
12
8
5
9
10
6
7
9
3
5
6
6
12
9
4
7
4
5
6
5
8
6
5
