#Saved Data from the class pulsed_measurement_logic on 18.11.2022 at 10h37m10s.
#
#Parameters:
#===========
#
#bin width (s): 5.0000000000000001e-09
#record length (s): 1.0025000000000000e-05
#gated counting: False
#Number of laser pulses: 2
#alternating: False
#Controlled variable: [2e-06]
#
#Data:
#=====
#Signal(counts)
4
0
2
4
3
1
2
2
2
2
5
2
3
2
0
3
2
1
5
2
1
2
4
2
1
0
3
1
1
3
2
1
1
1
2
2
2
1
1
2
0
3
4
1
1
3
2
6
8
23
32
35
37
39
39
47
50
38
33
46
37
31
35
34
43
46
42
39
34
29
35
43
33
46
32
29
34
31
32
28
28
32
35
40
31
34
32
35
31
31
34
35
25
33
21
39
20
29
33
25
37
22
28
38
21
25
27
30
30
24
29
31
34
29
39
26
33
22
38
32
31
28
25
31
26
38
42
25
36
18
28
32
27
29
23
24
27
32
34
36
28
31
19
27
21
24
39
34
32
35
23
36
27
17
33
30
29
24
41
23
29
27
22
30
20
19
28
31
23
21
28
24
27
26
32
27
23
36
25
24
31
23
31
24
28
32
25
24
21
26
26
32
23
30
26
30
23
19
21
21
26
20
22
16
21
22
20
31
20
19
18
21
21
31
24
24
12
28
23
23
21
28
23
35
33
26
14
33
14
16
22
27
23
21
21
25
23
15
25
22
30
26
18
18
23
19
15
22
24
38
21
24
30
18
28
18
20
26
29
21
24
32
20
26
21
20
24
20
21
23
21
26
22
29
19
24
19
20
25
23
18
24
34
24
24
22
24
23
25
19
20
27
23
22
24
19
25
22
20
23
18
32
21
24
18
25
24
22
27
19
19
19
17
25
18
17
29
18
17
32
16
20
29
13
21
26
21
28
13
31
27
17
19
15
34
23
18
30
19
25
23
26
18
25
19
18
30
18
23
28
23
23
32
26
25
25
25
22
17
35
24
22
28
19
32
16
25
28
27
25
21
28
20
23
25
21
22
24
23
22
18
26
34
27
21
26
22
15
20
26
28
19
16
20
38
20
19
25
22
21
18
27
20
26
21
17
29
20
17
21
25
27
30
27
12
22
31
27
17
19
21
17
20
15
28
17
16
17
24
24
23
24
24
22
26
27
19
29
25
20
21
32
22
18
26
14
20
18
30
12
15
3
1
1
3
1
3
1
4
2
4
4
2
2
3
0
5
3
3
1
1
2
4
4
3
1
1
0
0
0
3
2
2
2
1
0
2
2
7
5
2
3
0
2
4
2
1
1
2
1
1
0
3
0
4
5
2
0
2
1
0
5
1
1
2
2
3
1
4
6
1
1
0
5
2
2
1
1
1
3
1
3
3
3
3
3
1
5
2
2
1
5
3
0
2
1
5
6
1
2
1
2
3
2
1
3
1
0
2
0
0
2
0
2
2
1
4
3
0
1
2
3
4
2
3
0
0
6
1
5
1
0
3
1
2
0
1
1
2
3
4
2
2
0
2
0
4
3
1
2
2
1
5
2
4
2
2
4
7
0
2
0
3
1
2
5
1
0
1
1
1
3
1
2
2
2
1
4
2
2
4
3
2
2
1
2
2
0
2
1
2
2
5
4
3
3
3
2
1
1
1
1
2
1
1
0
3
2
2
2
1
3
4
4
1
2
2
0
2
2
0
1
1
2
0
0
2
0
3
2
3
1
3
9
1
1
3
3
1
1
0
1
3
0
2
2
2
2
0
4
3
2
3
2
4
0
1
1
1
2
2
0
1
1
0
2
1
1
2
0
2
1
5
3
2
1
1
3
3
2
3
7
2
3
3
2
1
3
0
3
1
1
4
2
4
1
1
0
0
1
0
1
2
1
3
2
0
4
5
0
4
2
1
1
0
4
0
3
1
0
3
0
0
2
2
1
0
1
3
1
1
1
3
4
4
0
3
3
4
3
2
2
4
0
3
2
3
2
0
1
2
3
2
1
2
1
3
1
0
6
4
0
0
2
1
0
1
1
3
0
0
2
0
1
5
2
4
2
4
2
0
2
3
1
3
0
3
2
0
1
3
2
2
2
3
2
2
0
1
1
2
5
13
26
30
33
38
42
37
31
42
35
46
31
45
37
46
31
37
39
42
33
33
33
34
35
32
30
43
38
37
26
39
24
23
39
28
28
30
40
33
38
27
31
33
39
36
29
37
29
37
33
24
29
35
33
25
32
27
32
24
26
28
24
36
36
31
22
40
35
20
31
32
25
28
25
28
31
34
34
33
25
32
34
35
35
35
35
25
32
29
28
23
25
32
25
27
36
22
30
36
23
37
21
27
28
30
16
22
33
28
21
28
28
33
25
23
31
25
27
27
20
23
28
40
28
20
18
24
33
32
19
25
30
27
25
28
29
23
20
32
22
20
26
20
28
28
20
37
32
20
15
25
22
24
22
24
23
31
28
17
21
24
23
18
19
24
27
22
26
24
24
26
25
20
17
29
23
17
25
22
21
16
27
24
27
26
27
22
23
22
25
19
19
30
21
25
26
31
21
20
24
27
24
31
19
19
31
20
21
22
27
30
40
30
22
27
17
26
19
19
16
22
26
24
25
26
30
16
19
24
23
22
29
24
15
17
24
19
29
18
23
17
27
24
25
28
16
28
20
24
29
34
23
30
20
19
17
23
27
18
16
23
27
25
28
16
30
25
19
20
22
21
35
18
30
23
20
24
21
19
22
24
24
24
23
27
16
22
24
16
22
20
23
16
28
23
18
19
23
23
24
24
22
18
28
19
23
19
27
23
24
21
16
18
25
34
18
21
19
27
16
13
28
26
18
22
15
30
20
21
18
21
24
28
22
24
22
23
28
28
18
15
19
23
17
26
22
19
25
20
24
26
22
20
25
26
25
23
22
35
20
27
33
17
22
28
17
17
27
30
23
22
19
26
20
17
19
21
27
22
17
18
25
27
21
22
20
23
19
21
16
15
21
13
17
25
22
19
15
8
2
2
2
0
3
0
2
1
0
4
3
5
3
2
1
1
0
2
3
3
2
0
2
0
2
2
3
3
2
2
2
6
4
3
3
4
1
2
2
2
0
4
0
3
1
1
2
3
2
3
1
5
1
1
3
3
3
0
0
4
1
1
2
2
4
1
3
3
4
3
5
1
0
2
2
2
3
1
3
5
1
2
4
1
0
1
2
1
2
0
5
0
1
5
0
2
3
2
1
3
4
1
2
2
4
1
4
2
2
2
2
3
1
2
1
5
1
1
0
4
0
0
2
0
1
5
1
2
2
2
4
1
5
1
1
3
1
0
1
2
1
5
3
2
2
1
1
3
1
1
4
1
1
1
3
2
4
1
1
2
0
1
4
1
3
5
1
3
6
3
3
2
3
4
3
1
3
5
1
0
1
1
1
3
2
7
3
5
1
3
1
1
1
1
2
2
1
2
4
1
4
0
1
2
2
1
3
3
3
2
0
0
0
6
3
3
4
4
3
5
2
2
5
2
1
0
2
2
2
3
1
1
1
2
4
1
1
3
1
2
1
2
1
2
1
0
1
3
1
1
2
0
3
2
1
2
1
1
1
1
2
0
5
1
1
1
3
2
2
2
0
2
2
2
1
2
1
1
0
2
1
1
2
1
3
3
1
1
2
1
1
1
1
3
1
1
5
1
1
2
0
1
6
3
1
4
1
3
1
0
3
1
6
3
3
3
1
1
1
1
3
2
2
6
2
4
2
0
1
0
4
2
4
2
1
4
0
0
1
2
1
0
2
2
0
1
4
3
2
3
3
1
1
0
1
3
4
1
2
1
2
5
2
2
1
2
2
1
3
1
2
0
3
2
0
4
2
2
1
4
3
3
1
3
1
3
4
1
2
3
1
2
0
4
0
1
2
0
3
0
2
1
1
0
1
5
0
2
5
1
0
0
3
1
0
2
2
5
0
2
3
0
1
1
1
2
1
1
0
0
1
1
4
0
3
4
3
1
1
2
3
2
4
0
2
1
0
2
2
4
2
2
4
2
1
4
1
0
2
2
3
2
3
0
1
2
1
2
1
1
1
2
0
2
1
1
3
4
2
0
2
2
4
1
2
4
3
1
1
3
1
2
1
1
5
2
1
3
1
3
0
5
2
1
2
1
3
1
2
4
0
4
3
1
4
2
2
1
1
1
2
2
3
2
1
0
1
3
1
2
1
2
4
1
2
3
1
1
1
3
4
3
1
3
1
0
4
2
4
3
3
3
3
2
0
3
2
3
5
0
2
3
4
3
3
4
3
2
1
1
3
4
2
1
4
2
1
1
2
4
1
2
1
3
1
6
1
0
1
1
2
2
4
1
2
3
1
0
2
2
6
2
3
1
1
2
0
3
2
3
1
2
1
2
3
4
4
1
1
1
1
4
3
3
3
1
4
1
3
1
3
1
4
1
0
2
1
2
1
2
3
1
4
2
1
2
0
2
5
1
0
2
3
1
2
1
2
2
4
2
0
2
2
1
3
1
3
3
1
2
0
4
2
0
2
1
3
0
2
2
0
3
2
3
2
3
2
1
4
3
2
1
2
1
3
0
5
2
2
4
3
3
5
0
2
1
0
3
1
2
1
1
2
4
2
2
2
4
1
1
1
2
1
1
1
3
1
2
4
1
3
1
1
4
0
2
5
3
1
7
0
1
3
2
0
1
0
1
4
3
4
0
3
3
