#Saved Data from the class pulsed_measurement_logic on 18.11.2022 at 11h31m21s.
#
#Parameters:
#===========
#
#bin width (s): 1.0000000000000000e-08
#record length (s): 1.0030000000000001e-05
#gated counting: False
#Number of laser pulses: 2
#alternating: False
#Controlled variable: [2e-06]
#
#Data:
#=====
#Signal(counts)
1
0
0
1
1
1
1
1
0
1
0
0
0
0
1
0
1
0
3
3
0
0
1
3
44
62
68
62
77
57
52
59
58
49
50
60
44
64
62
39
41
32
49
36
28
42
36
43
39
38
32
35
43
32
34
22
20
36
27
24
26
30
23
18
27
29
29
30
32
22
25
20
31
23
25
21
19
19
26
21
17
22
18
19
19
27
20
14
27
20
33
18
19
23
24
23
18
32
17
21
18
14
24
25
22
26
11
11
22
26
10
20
18
22
23
19
19
24
14
19
14
14
27
16
23
23
17
15
13
22
17
27
22
24
20
24
18
21
21
23
19
24
22
16
16
18
11
15
18
26
21
24
21
21
13
21
20
29
18
20
16
14
16
25
17
24
12
20
28
23
24
22
15
16
22
19
17
23
18
22
21
23
17
14
25
35
28
21
20
23
20
25
12
15
20
26
24
20
10
11
16
25
24
22
20
20
18
15
22
28
20
19
21
19
16
20
26
24
23
23
19
17
16
20
21
4
0
2
2
2
0
0
2
1
1
3
1
0
2
0
1
3
1
0
0
1
2
2
0
0
2
1
0
1
1
0
0
2
2
1
1
0
4
1
2
0
0
2
0
0
1
0
0
0
1
0
1
1
0
0
0
2
1
1
2
2
1
0
0
0
1
2
0
2
0
1
0
2
1
0
2
6
0
0
0
1
2
1
0
0
0
2
1
1
2
0
0
1
0
1
0
3
0
1
0
0
2
1
1
0
1
0
1
4
0
2
0
2
2
1
0
2
0
2
0
0
1
0
1
0
2
2
2
0
0
1
0
1
2
3
3
0
2
0
0
0
0
0
0
2
1
4
0
0
0
2
1
0
0
1
1
0
1
1
1
2
2
2
0
0
0
0
0
2
1
0
1
1
0
0
0
1
0
0
1
0
0
2
0
0
1
0
1
1
1
0
1
0
0
0
1
0
1
0
0
3
32
58
55
79
64
67
67
59
52
61
51
48
44
43
50
39
35
46
45
40
25
38
34
32
30
35
39
27
24
33
47
36
26
44
25
35
33
27
34
15
34
31
30
18
23
16
21
23
30
19
30
21
24
27
18
28
22
16
20
19
22
18
17
22
32
18
22
20
15
18
17
20
20
15
21
17
19
23
23
26
20
23
22
20
28
23
15
19
29
17
22
23
18
17
19
26
24
19
25
31
27
23
28
18
22
15
21
20
12
26
20
19
13
14
34
25
29
26
23
20
17
19
22
26
21
16
17
23
17
23
16
11
24
22
20
19
18
10
15
17
18
16
23
17
22
22
19
16
15
18
18
17
21
19
30
27
21
25
15
14
17
22
17
18
25
21
16
22
24
25
25
27
33
25
10
20
16
17
15
21
21
15
12
22
21
17
18
21
19
23
19
19
18
21
28
13
25
23
10
2
3
0
1
0
1
1
0
0
1
1
1
2
2
1
1
1
0
2
1
3
1
1
4
2
0
0
0
1
2
2
1
1
1
0
2
0
1
2
1
0
1
0
0
0
1
3
2
1
1
0
1
0
0
0
0
0
0
2
1
1
2
1
0
1
0
0
0
1
0
4
1
0
0
0
0
0
0
0
1
2
0
1
0
2
1
0
0
0
0
1
0
3
1
0
0
0
1
5
0
1
0
0
1
0
1
1
1
1
0
0
1
1
0
0
0
2
0
0
0
3
1
1
0
3
2
3
1
0
2
1
2
2
1
0
0
3
0
0
1
0
0
0
0
1
1
0
0
2
0
4
1
0
0
0
0
0
0
0
1
0
1
0
0
0
0
1
0
0
1
0
0
0
1
0
0
1
1
1
1
0
0
1
0
0
0
0
1
3
0
0
1
1
0
0
1
0
0
0
2
0
2
2
2
1
1
0
0
0
2
1
0
0
0
1
1
1
1
0
1
0
0
0
1
1
0
0
2
1
0
2
0
1
1
0
0
1
0
0
0
1
0
2
1
0
0
0
2
1
1
2
1
2
0
2
2
1
0
1
1
1
0
1
1
0
1
1
0
0
0
0
2
0
0
1
0
1
0
0
0
0
0
0
2
1
1
1
0
0
0
1
0
0
0
0
0
1
0
1
1
0
1
2
0
0
1
1
0
1
1
1
0
0
0
1
1
2
1
1
0
1
0
0
0
2
2
0
2
1
0
0
3
0
0
1
1
1
1
0
1
0
1
0
0
1
1
0
1
0
0
3
1
0
0
0
1
1
0
0
0
0
0
1
2
1
2
0
0
2
0
1
1
1
2
1
1
0
0
