#Saved Data from the class pulsed_measurement_logic on 18.11.2022 at 11h11m32s.
#
#Parameters:
#===========
#
#bin width (s): 1.0000000000000000e-08
#record length (s): 1.0030000000000001e-05
#gated counting: False
#Number of laser pulses: 2
#alternating: False
#Controlled variable: [2e-06]
#
#Data:
#=====
#Signal(counts)
0
0
0
0
1
1
0
1
0
0
0
0
1
0
0
1
0
2
1
0
1
1
0
2
34
47
55
50
45
40
39
43
34
45
47
39
40
34
31
21
25
30
24
32
33
25
24
26
26
26
30
22
23
21
21
24
19
16
23
25
20
24
18
18
22
23
12
23
11
20
19
13
17
17
16
15
16
19
16
15
17
10
11
22
13
14
17
10
15
18
17
17
10
15
17
11
16
8
12
19
14
11
13
11
9
15
10
19
12
17
14
13
20
16
14
15
9
16
14
8
15
17
11
12
9
9
13
17
13
14
14
17
13
13
12
15
13
18
16
13
10
9
10
20
13
16
16
7
14
16
17
16
16
16
21
12
15
13
16
15
11
9
13
14
14
11
16
13
17
11
15
8
15
14
14
10
19
19
16
19
15
16
16
9
11
18
9
12
12
4
12
14
11
20
11
17
14
17
23
18
5
14
11
12
22
13
14
15
8
11
21
15
16
9
14
11
15
24
16
17
13
21
11
17
8
3
1
1
1
3
2
2
0
0
4
1
0
2
0
2
2
0
1
1
0
0
0
0
2
0
0
3
0
1
1
2
0
0
1
1
1
0
0
0
0
0
1
1
2
1
0
0
0
1
1
0
1
1
1
0
1
2
1
0
2
0
0
0
1
1
1
0
0
0
0
0
2
1
0
0
1
1
0
0
1
1
0
0
4
2
0
0
0
0
1
0
0
0
2
2
0
0
1
0
0
2
0
1
1
0
1
0
1
2
1
1
2
0
2
1
0
1
0
0
1
0
2
0
1
0
0
1
2
0
1
0
0
1
0
0
0
0
1
1
2
1
0
1
1
1
2
0
2
3
1
2
0
0
2
0
0
2
1
0
0
0
0
0
1
1
0
1
0
0
0
1
0
2
0
0
0
1
0
3
0
0
0
0
0
0
1
0
0
1
1
1
1
1
1
0
0
0
1
1
0
3
23
45
58
54
49
50
34
38
36
39
35
38
35
37
25
31
29
27
28
29
27
29
27
19
20
23
18
17
26
17
13
16
12
17
22
19
14
17
12
22
16
24
19
11
25
15
10
20
17
14
11
14
18
15
20
15
16
17
22
14
17
12
19
16
14
19
15
15
21
8
9
6
25
16
14
10
13
14
13
19
16
9
20
13
18
12
16
15
19
11
16
12
14
13
14
22
12
10
17
13
18
11
19
8
13
10
17
15
13
14
16
10
17
15
17
18
17
13
11
13
12
24
17
19
8
14
12
15
18
12
15
13
12
11
16
13
13
10
12
8
20
14
13
19
7
18
16
10
17
15
12
10
21
15
10
14
12
10
21
15
16
19
16
18
12
16
10
8
19
11
18
12
18
9
16
17
12
8
22
9
12
18
12
12
11
15
15
12
10
8
14
16
13
12
17
22
13
10
9
2
1
0
0
0
1
1
3
1
0
1
0
0
0
0
1
2
0
1
2
1
1
2
1
1
0
1
0
1
1
2
0
0
0
2
0
1
0
0
1
0
0
1
0
1
0
1
0
0
1
1
1
0
2
0
1
1
1
0
1
0
2
1
1
1
0
1
1
0
0
1
2
3
1
1
0
1
0
2
1
2
1
0
1
1
0
1
0
1
0
0
0
2
1
1
0
1
0
1
1
0
0
4
0
0
1
0
3
1
4
1
0
0
1
0
0
1
0
2
3
1
0
0
0
2
0
1
2
0
0
0
2
0
0
2
0
0
0
3
0
0
0
2
2
1
0
1
1
0
3
0
1
0
0
3
0
0
0
1
0
1
3
0
0
1
1
0
0
1
1
1
0
0
0
1
1
1
1
1
1
0
1
0
1
2
0
0
2
0
0
0
0
1
0
1
0
0
2
2
2
1
0
1
2
0
2
0
0
2
0
0
1
0
1
0
0
1
1
2
1
0
1
0
1
0
0
1
0
0
0
0
1
0
2
0
1
0
1
2
0
0
0
1
1
0
0
0
3
0
1
1
2
0
2
0
2
0
1
2
0
1
1
1
0
1
2
0
0
1
0
1
0
2
1
2
2
0
0
0
1
0
0
0
2
0
0
2
2
2
0
0
2
0
0
0
1
2
1
2
0
2
0
0
3
5
3
0
1
0
1
0
0
0
1
1
0
0
2
4
0
1
0
1
1
0
0
0
3
1
0
0
2
1
0
0
1
2
0
1
0
0
1
0
2
0
0
1
0
3
0
0
0
2
0
1
0
2
0
1
1
1
1
0
0
2
1
0
0
0
1
0
0
0
0
1
0
0
0
