#Saved Data from the class pulsed_measurement_logic on 18.11.2022 at 10h55m38s.
#
#Parameters:
#===========
#
#bin width (s): 1.0000000000000000e-08
#record length (s): 1.0030000000000001e-05
#gated counting: False
#Number of laser pulses: 2
#alternating: False
#Controlled variable: [2e-06]
#
#Data:
#=====
#Signal(counts)
0
1
2
2
0
2
1
0
1
1
2
2
1
0
0
1
1
2
2
2
1
0
0
1
37
59
56
54
50
35
36
43
39
27
23
22
23
30
16
18
22
9
13
20
16
19
17
7
20
12
9
16
11
12
17
9
11
12
15
14
9
14
7
7
9
9
6
10
8
11
8
8
6
10
10
4
13
7
5
10
8
7
7
6
7
9
9
12
9
8
9
7
14
17
11
10
5
9
5
11
14
8
11
11
6
8
8
9
8
11
10
11
10
11
9
15
9
15
10
8
15
3
9
8
8
10
14
6
13
9
3
12
12
3
11
9
5
4
9
7
8
12
10
8
11
9
10
11
4
15
14
6
5
11
12
16
13
10
8
3
8
14
7
5
13
10
11
17
8
15
12
10
8
8
6
10
6
9
8
5
15
9
8
9
12
3
17
11
10
10
13
11
7
13
11
9
10
10
9
10
15
7
9
7
10
11
9
12
7
10
13
16
16
8
9
9
12
10
6
11
11
11
11
13
6
5
2
0
0
2
0
2
0
0
2
1
0
2
0
1
1
3
1
0
1
1
1
0
3
3
0
1
0
2
0
1
0
1
2
0
1
0
0
1
1
0
2
0
2
1
1
0
0
3
0
1
0
0
5
2
0
1
1
0
0
0
1
0
0
0
0
0
0
1
0
2
0
1
2
0
0
0
0
1
1
2
0
0
1
0
3
0
0
0
0
2
1
1
1
1
0
2
0
3
1
0
1
0
1
0
1
0
1
0
0
1
1
0
1
1
1
0
2
0
1
0
0
1
0
1
0
0
1
0
0
1
0
0
1
3
1
0
0
0
0
0
0
1
0
0
1
0
0
1
1
1
1
0
0
0
1
1
0
0
0
0
0
2
0
0
0
0
0
1
0
0
1
3
1
1
2
0
3
0
0
0
2
1
2
1
1
0
0
1
0
0
0
1
1
1
1
2
0
0
0
1
31
38
46
38
46
37
39
38
35
29
26
22
25
13
23
16
19
19
19
27
11
20
13
11
16
16
10
14
8
12
19
10
6
13
17
8
10
7
14
10
10
9
10
13
8
9
6
8
10
8
16
10
8
9
7
10
10
12
11
11
13
7
10
5
11
6
8
8
7
6
11
10
8
12
13
14
5
11
7
8
6
13
11
10
8
10
9
10
8
11
10
15
12
6
10
8
4
12
8
9
9
12
11
6
11
11
7
11
10
5
9
7
9
11
9
11
12
5
10
8
7
10
13
14
9
3
7
16
8
9
7
10
8
14
5
12
19
13
8
15
17
6
13
8
14
12
17
7
5
8
8
8
9
10
14
14
12
11
14
10
7
6
12
9
11
11
13
9
7
4
9
10
9
10
10
10
4
9
8
10
21
5
12
11
11
7
3
10
15
9
8
15
11
8
12
6
10
7
11
1
1
0
1
2
0
2
1
0
0
1
2
2
1
1
0
1
0
0
1
0
1
2
0
0
2
1
0
0
2
1
1
1
0
1
1
1
1
1
1
0
0
0
0
0
2
0
2
3
1
1
0
1
1
2
0
0
0
0
1
1
2
1
1
0
0
1
0
0
2
1
1
0
1
1
1
1
2
1
2
0
1
1
1
0
0
0
0
2
2
1
1
0
0
0
0
0
0
2
0
0
1
0
2
3
0
0
1
2
0
0
0
1
1
1
0
0
0
0
2
0
1
1
0
0
1
0
0
3
1
0
0
0
2
1
0
1
0
0
1
0
1
0
1
2
1
1
2
1
1
0
2
0
1
3
0
0
0
0
0
1
0
0
1
0
1
1
2
1
0
0
1
0
0
2
0
0
0
1
0
0
1
0
1
2
2
0
1
1
0
0
2
0
0
0
0
1
1
0
0
0
1
0
1
1
0
2
1
0
1
1
0
3
0
1
0
0
0
1
1
1
2
1
1
0
2
0
1
1
3
1
0
0
2
0
0
0
1
0
1
1
0
5
2
0
0
1
0
0
1
1
2
0
0
0
0
1
1
0
0
1
1
0
1
0
1
1
0
0
0
0
2
0
0
0
0
0
2
0
1
2
1
1
0
0
2
2
1
0
0
0
0
0
0
2
0
1
1
1
0
0
0
1
1
0
3
0
0
2
1
1
0
1
0
2
1
0
0
1
1
2
0
0
0
1
1
3
0
1
0
4
1
0
0
2
0
0
1
0
1
0
1
0
1
1
0
1
0
0
0
0
2
1
0
0
0
1
0
0
2
0
2
1
0
1
0
2
2
0
0
0
1
0
1
0
0
1
1
