#Saved Data from the class pulsed_measurement_logic on 18.11.2022 at 15h52m43s.
#
#Parameters:
#===========
#
#bin width (s): 5.0000000000000001e-09
#record length (s): 8.4875000000000003e-05
#gated counting: False
#extraction parameters: {'conv_std_dev': 2.0, 'method': 'conv_deriv'}
#
#Data:
#=====
#Signal (counts)
9	22	63	11	23	70	5	49	32	66	5	18	71	15	50	12	73	5	45	17	58	10	14	83	9	23	57	7	23	57	10	21	63	7	23	74	9	23	52	4	20	66	3	28	67	6	26	60	8	20	5	18	61	9	21	68	7	32	64	7	20	72	6	19	59	4	25	64	4	18	72	9	28	68	8	23	4	27	54	4	18	57	4	15	69	5	17	11	22	72
3	19	355	3	16	307	9	283	20	308	8	30	302	7	238	21	324	12	265	19	308	5	15	334	2	25	331	9	26	309	8	24	349	7	8	320	4	20	314	8	20	320	6	25	326	4	23	344	5	23	6	20	306	4	25	310	6	20	376	6	26	328	6	22	335	7	17	303	4	20	341	7	21	322	12	30	8	12	327	4	17	340	6	16	326	3	20	8	22	318
23	63	249	58	70	291	49	204	66	243	58	71	232	50	230	73	237	45	210	58	270	47	83	274	46	57	270	39	57	276	37	63	247	40	74	271	46	52	264	31	66	256	45	67	253	48	60	248	29	76	39	61	265	39	68	247	32	64	218	38	72	297	42	59	254	32	64	245	34	72	225	44	68	269	47	64	37	54	241	31	57	254	34	69	260	25	63	27	72	285
142	355	242	304	307	238	283	219	308	246	296	302	235	238	213	324	252	265	223	308	245	252	334	237	244	331	234	226	309	228	245	349	263	221	320	257	239	314	245	241	320	247	240	326	260	207	344	249	228	341	186	306	246	192	310	216	211	376	257	176	328	261	196	335	259	207	303	219	190	341	230	197	322	230	209	312	183	327	241	197	340	257	173	326	251	177	316	165	318	253
126	249	241	273	291	226	204	198	243	196	251	232	219	230	188	237	244	210	191	270	249	207	274	236	188	270	233	193	276	224	207	247	239	188	271	230	184	264	229	169	256	247	168	253	217	185	248	230	173	235	157	265	216	168	247	224	176	218	217	159	297	250	162	254	213	172	245	214	148	225	235	138	269	221	143	242	162	241	226	175	254	224	144	260	223	145	222	154	285	225
122	242	201	259	238	194	219	215	246	202	196	235	233	213	173	252	203	223	165	245	209	199	237	200	201	234	217	200	228	201	192	263	208	166	257	203	163	245	216	181	247	221	151	260	196	154	249	188	157	224	160	246	214	146	216	241	162	257	235	130	261	220	148	259	201	146	219	222	161	230	203	138	230	213	169	265	166	241	211	156	257	209	143	251	222	134	230	150	253	210
129	241	179	200	226	203	198	163	196	200	199	219	220	188	163	244	211	191	166	249	203	194	236	182	170	233	225	172	224	204	171	239	200	156	230	199	164	229	177	172	247	198	142	217	180	134	230	197	147	195	133	216	200	148	224	209	152	217	189	136	250	198	142	213	194	128	214	190	132	235	199	135	221	181	135	209	118	226	201	130	224	203	150	223	198	112	188	118	225	183
110	201	183	183	194	185	215	156	202	180	196	233	186	173	144	203	180	165	158	209	196	171	200	200	169	217	201	142	201	190	176	208	184	137	203	183	156	216	190	137	221	216	138	196	190	133	188	152	140	217	124	214	191	111	241	181	117	235	189	118	220	191	139	201	182	115	222	171	134	203	174	135	213	196	122	180	128	211	164	121	209	175	108	222	178	122	204	126	210	188
77	179	167	166	203	164	163	137	200	150	163	220	183	163	161	211	185	166	140	203	148	138	182	184	130	225	163	154	204	163	142	200	157	130	199	179	141	177	154	152	198	163	146	180	168	134	197	140	119	198	122	200	172	135	209	187	117	189	172	132	198	175	106	194	167	117	190	197	133	199	160	109	181	169	136	170	112	201	189	111	203	179	129	198	170	105	200	114	183	184
95	183	163	160	185	146	156	157	180	153	150	186	138	144	113	180	155	158	115	196	174	141	200	154	144	201	160	126	190	161	142	184	161	128	183	165	125	190	152	117	216	159	98	190	148	134	152	170	103	201	120	191	137	111	181	172	107	189	172	112	191	148	116	182	158	98	171	157	110	174	134	127	196	159	95	173	140	164	158	107	175	173	111	178	165	95	192	106	188	165
97	167	135	158	164	142	137	134	150	147	153	183	155	161	116	185	155	140	112	148	155	111	184	150	138	163	142	116	163	131	134	157	144	114	179	164	110	154	171	109	163	151	107	168	146	109	140	114	113	190	96	172	164	102	187	154	95	172	152	102	175	141	93	167	150	117	197	150	113	160	151	84	169	151	77	170	80	189	148	81	179	139	89	170	135	107	166	85	184	159
82	163	135	128	146	141	157	125	153	137	124	138	126	113	118	155	124	115	84	174	160	127	154	144	109	160	153	115	161	120	104	161	142	107	165	131	118	152	125	86	159	138	114	148	147	103	170	138	103	172	109	137	120	92	172	138	84	172	154	99	148	132	101	158	136	80	157	134	95	134	166	86	159	123	96	171	86	158	140	86	173	145	104	165	140	114	176	84	165	114
74	135	135	129	142	153	134	84	147	116	126	155	121	116	103	155	139	112	79	155	118	124	150	132	107	142	130	90	131	141	105	144	135	94	164	132	98	171	129	111	151	122	110	146	133	95	114	126	93	145	84	164	127	91	154	118	86	152	133	87	141	135	92	150	107	93	150	128	83	151	118	75	151	131	85	144	86	148	123	98	139	130	71	135	134	67	128	83	159	106
75	135	124	136	141	113	125	99	137	119	123	126	124	118	95	124	122	84	99	160	141	98	144	132	113	153	130	100	120	123	82	142	122	99	131	123	93	125	123	99	138	119	98	147	149	80	138	123	76	136	101	120	127	71	138	130	91	154	105	69	132	109	61	136	120	93	134	127	79	166	139	66	123	109	57	124	94	140	142	85	145	114	66	140	123	63	144	88	114	130
57	135	108	101	153	122	84	88	116	144	93	121	97	103	78	139	91	79	102	118	104	89	132	98	71	130	117	83	141	118	103	135	109	82	132	104	80	129	123	85	122	119	100	133	120	105	126	108	88	140	71	127	118	72	118	111	74	133	107	64	135	101	77	107	133	75	128	116	88	118	124	73	131	112	76	111	75	123	113	80	130	118	74	134	116	76	134	81	106	141
56	124	126	109	113	110	99	104	119	118	125	124	112	95	83	122	121	99	86	141	89	84	132	103	86	130	92	73	123	105	79	122	99	90	123	99	78	123	126	83	119	111	66	149	100	80	123	102	77	123	75	127	105	72	130	125	72	105	106	70	109	101	57	120	97	67	127	98	58	139	104	72	109	104	74	115	68	142	89	67	114	122	68	123	102	70	142	67	130	109
50	108	106	103	122	101	88	70	144	108	87	97	104	78	87	91	95	102	83	104	114	100	98	93	75	117	96	77	118	106	83	109	98	85	104	93	63	123	95	67	119	89	53	120	97	71	108	104	68	106	75	118	123	67	111	115	58	107	104	66	101	94	68	133	104	57	116	93	79	124	108	68	112	106	72	114	59	113	103	60	118	86	50	116	109	63	117	62	141	88
50	126	106	97	110	91	104	75	118	103	80	112	98	83	69	121	86	86	60	89	80	69	103	100	81	92	95	79	105	93	79	99	111	73	99	89	65	126	80	67	111	110	56	100	85	59	102	70	72	126	70	105	112	68	125	86	64	106	98	59	101	91	59	97	84	70	98	97	62	104	80	60	104	94	67	108	56	89	96	55	122	113	58	102	91	50	116	66	109	132
56	106	77	87	101	87	70	57	108	80	72	104	71	87	81	95	88	83	67	114	92	68	93	92	76	96	109	59	106	90	70	98	105	66	93	86	60	95	90	65	89	73	62	97	71	66	104	90	75	84	76	123	82	79	115	75	65	104	102	50	94	87	73	104	92	52	93	122	53	108	91	59	106	90	67	87	54	103	84	61	86	91	54	109	84	56	115	72	88	82
46	106	92	86	91	77	75	65	103	109	67	98	96	69	65	86	74	60	64	80	89	68	100	94	74	95	77	77	93	83	67	111	78	62	89	100	59	80	76	65	110	76	51	85	74	63	70	88	61	99	60	112	76	66	86	98	47	98	82	55	91	81	47	84	83	51	97	81	58	80	81	52	94	92	47	96	47	96	92	48	113	111	59	91	81	59	101	50	132	74
54	77	70	77	87	85	57	68	80	79	76	71	79	81	72	88	74	67	66	92	70	71	92	83	68	109	88	52	90	80	57	105	93	81	86	69	54	90	72	73	73	75	67	71	82	68	90	85	51	111	49	82	80	50	75	74	51	102	97	59	87	82	47	92	80	49	122	77	38	91	75	68	90	76	53	84	49	84	72	62	91	95	40	84	78	67	93	52	82	88
44	92	86	65	77	72	65	54	109	81	56	96	74	65	56	74	75	64	48	89	68	59	94	79	59	77	67	54	83	63	64	78	79	51	100	77	57	76	75	43	76	72	64	74	77	54	88	79	52	69	35	76	74	50	98	81	40	82	80	50	81	74	40	83	87	46	81	91	63	81	70	40	92	79	62	93	50	92	63	46	111	77	57	81	62	52	89	61	74	76
38	70	65	72	85	87	68	61	79	72	65	79	72	72	66	74	73	66	49	70	73	58	83	69	54	88	54	61	80	59	52	93	66	70	69	73	61	72	77	65	75	76	34	82	71	53	85	72	45	72	49	80	70	46	74	67	59	97	70	52	82	82	40	80	83	34	77	83	57	75	68	43	76	75	51	76	45	72	68	56	95	92	52	78	68	45	87	51	88	80
38	86	68	54	72	72	54	49	81	79	49	74	70	56	50	75	69	48	46	68	76	50	79	64	61	67	70	64	63	67	61	79	69	51	77	55	53	75	56	47	72	70	58	77	70	51	79	73	51	73	50	74	52	41	81	71	49	80	72	54	74	83	44	87	66	52	91	69	32	70	69	49	79	71	48	67	39	63	76	38	77	66	45	62	70	42	76	39	76	62
44	65	66	64	87	67	61	61	72	69	52	72	63	66	49	73	55	49	55	73	75	55	69	60	58	54	63	50	59	75	54	66	63	36	73	66	47	77	75	44	76	65	37	71	68	53	72	64	30	62	36	70	74	43	67	58	63	70	71	41	82	64	37	83	58	43	83	82	44	68	68	36	75	70	33	75	42	68	80	41	92	58	46	68	52	47	65	27	80	58
33	68	73	55	72	65	49	47	79	49	56	70	70	50	65	69	47	46	54	76	64	53	64	57	27	70	62	43	67	67	55	69	64	51	55	61	45	56	64	55	70	65	39	70	51	52	73	48	42	61	40	52	55	43	71	50	39	72	62	41	83	61	35	66	75	40	69	68	36	69	80	26	71	61	36	78	32	76	54	37	66	70	36	70	64	38	64	30	62	73
32	66	48	49	67	53	61	44	69	61	51	63	66	49	49	55	69	55	35	75	49	49	60	64	53	63	69	43	75	59	53	63	56	47	66	57	42	75	63	40	65	61	46	68	56	34	64	61	50	57	43	74	62	40	58	54	37	71	67	30	64	50	48	58	55	29	82	59	44	68	62	36	70	69	37	64	45	80	60	30	58	76	37	52	58	51	56	51	58	55
35	73	58	57	65	61	47	40	49	52	49	70	70	65	39	47	57	54	33	64	61	40	57	58	40	62	71	38	67	67	45	64	55	43	61	75	41	64	46	49	65	60	46	51	70	46	48	58	44	61	30	55	56	39	50	41	33	62	51	28	61	60	50	75	68	41	68	48	33	80	48	43	61	74	28	63	36	54	54	33	70	70	41	64	63	39	54	50	73	68
29	48	63	50	53	49	44	37	61	54	38	66	61	49	53	69	51	35	44	49	47	38	64	65	43	69	54	36	59	53	48	56	47	50	57	67	45	63	49	44	61	61	29	56	60	35	61	55	35	52	42	62	65	45	54	65	44	67	64	34	50	47	38	55	57	31	59	53	30	62	43	33	69	58	35	72	35	60	54	39	76	57	42	58	45	31	72	31	55	51
23	58	50	48	61	50	40	35	52	52	42	70	49	39	35	57	65	33	37	61	51	33	58	65	46	71	54	34	67	56	41	55	59	40	75	56	32	46	49	33	60	48	40	70	63	49	58	60	36	59	45	56	56	29	41	71	41	51	52	27	60	62	43	68	63	37	48	45	32	48	48	28	74	49	32	52	35	54	57	31	70	50	39	63	42	27	39	36	68	64
32	63	57	53	49	54	37	34	54	52	26	61	40	53	40	51	53	44	43	47	46	28	65	49	45	54	59	40	53	46	38	47	56	20	67	48	31	49	49	19	61	48	34	60	44	41	55	48	31	51	27	65	46	37	65	50	38	64	47	39	47	38	28	57	53	34	53	50	34	43	44	26	58	80	23	71	29	54	69	34	57	51	30	45	53	33	63	42	51	54
28	50	50	37	50	50	35	44	52	58	40	49	64	35	32	65	36	37	31	51	50	31	65	46	33	54	45	24	56	53	35	59	47	31	56	48	25	49	42	32	48	56	38	63	44	36	60	58	42	54	42	56	57	36	71	48	31	52	59	35	62	56	36	63	44	34	45	34	26	48	50	24	49	46	35	52	35	57	49	34	50	47	33	42	47	31	60	30	64	54
42	57	44	46	54	57	34	41	52	50	37	40	45	40	32	53	46	43	34	46	59	22	49	40	32	59	46	38	46	53	37	56	53	33	48	44	40	49	35	30	48	46	39	44	40	42	48	40	35	51	35	46	43	38	50	44	25	47	46	29	38	41	30	53	44	39	50	36	21	44	46	34	80	48	35	46	30	69	44	36	51	35	35	53	50	19	42	40	54	51
25	50	44	44	50	39	44	33	58	48	44	64	46	32	32	36	58	31	37	50	51	32	46	58	36	45	36	28	53	40	29	47	39	43	48	46	42	42	51	31	56	49	20	44	36	28	58	42	26	55	41	57	56	33	48	38	25	59	55	30	56	38	45	44	50	34	34	32	42	50	30	30	46	43	29	43	25	49	42	37	47	45	27	47	48	21	45	30	54	56
31	44	42	34	57	51	41	29	50	46	37	45	41	32	32	46	41	34	21	59	54	40	40	48	15	46	44	32	53	45	39	53	38	23	44	41	27	35	36	31	46	42	32	40	45	33	40	52	25	47	31	43	37	32	44	39	22	46	43	32	41	27	27	44	58	30	36	46	21	46	53	18	48	41	29	48	23	44	52	24	35	46	32	50	46	35	52	31	51	40
28	44	35	43	39	37	33	22	48	38	33	46	32	32	31	58	60	37	31	51	48	40	58	43	34	36	40	38	40	40	32	39	36	26	46	37	36	51	49	29	49	37	29	36	46	36	42	41	34	40	25	56	52	24	38	38	35	55	39	37	38	57	29	50	40	26	32	38	27	30	51	30	43	50	28	42	32	42	46	28	45	43	41	48	33	29	47	19	56	46
30	42	42	35	51	38	29	33	46	36	31	41	51	32	24	41	36	21	50	54	37	34	48	44	37	44	39	25	45	43	30	38	42	38	41	38	30	36	42	29	42	40	23	45	37	32	52	42	30	57	22	37	44	35	39	44	26	43	47	34	27	39	40	58	39	30	46	41	31	53	45	32	41	35	34	48	30	52	46	29	46	47	31	46	47	26	41	21	40	43
25	35	47	28	37	41	22	38	38	45	39	32	45	31	34	60	39	31	18	48	36	35	43	35	37	40	43	30	40	43	25	36	44	30	37	44	31	49	29	32	37	43	28	46	41	25	41	45	31	38	27	52	40	23	38	35	33	39	34	34	57	39	27	40	40	29	38	37	27	51	48	30	50	34	26	38	32	46	44	22	43	35	24	33	35	22	47	18	46	42
25	42	26	36	38	41	33	26	36	33	35	51	46	24	37	36	47	50	22	37	53	29	44	44	35	39	34	36	43	32	19	42	41	25	38	38	22	42	34	29	40	48	27	37	28	24	42	34	34	33	34	44	34	28	44	40	27	47	46	27	39	26	28	39	30	28	41	43	28	45	35	22	35	36	33	38	29	46	34	19	47	45	29	47	38	28	35	33	43	50
30	47	42	21	41	43	38	37	45	37	23	45	34	34	26	39	38	18	36	36	41	22	35	26	25	43	37	32	43	35	33	44	44	29	44	26	29	29	52	21	43	40	39	41	40	23	45	37	29	44	28	40	40	36	35	32	26	34	37	22	39	49	22	40	35	23	37	31	32	48	39	25	34	44	23	36	23	44	39	29	35	43	22	35	44	36	41	21	42	32
23	26	42	28	41	20	26	36	33	42	23	46	26	37	20	47	43	22	29	53	24	29	44	24	35	34	34	27	32	33	25	41	45	25	38	32	19	34	35	22	48	42	29	28	28	23	34	42	29	46	29	34	55	24	40	48	29	46	26	24	26	36	27	30	38	18	43	47	22	35	46	21	36	41	35	33	27	34	31	26	45	34	29	38	40	29	41	24	50	43
22	42	45	24	43	37	37	28	37	36	29	34	38	26	27	38	44	36	36	41	29	22	26	43	33	37	31	32	35	27	24	44	30	27	26	37	30	52	45	28	40	33	18	40	37	20	37	42	22	29	24	40	41	26	32	35	28	37	42	23	49	30	22	35	32	27	31	47	15	39	34	23	44	50	18	38	34	39	34	31	43	31	24	44	34	16	38	28	32	41
24	42	44	21	20	30	36	24	42	44	19	26	27	20	27	43	33	29	33	24	26	32	24	37	30	34	40	36	33	40	27	45	45	28	32	31	25	35	34	25	42	37	19	28	37	32	42	37	33	36	27	55	33	20	48	34	32	26	32	34	36	37	18	38	34	30	47	39	30	46	41	20	41	38	22	48	34	31	37	25	34	31	24	40	42	16	51	17	43	41
23	45	40	25	37	43	28	27	36	25	38	38	39	27	27	44	37	36	24	29	47	28	43	47	29	31	25	31	27	37	27	30	41	19	37	28	25	45	33	28	33	33	31	37	26	23	42	27	28	34	33	41	39	26	35	33	24	42	40	25	30	40	25	32	34	35	47	41	25	34	31	29	50	36	30	38	30	34	34	30	31	32	23	34	32	23	33	29	41	39
31	44	37	23	30	40	24	15	44	32	31	27	41	27	24	33	29	33	39	26	43	20	37	38	21	40	27	30	40	29	17	45	47	33	31	28	27	34	35	19	37	25	34	37	35	29	37	30	23	41	25	33	29	32	34	47	18	32	40	29	37	42	26	34	40	27	39	32	30	41	35	33	38	36	22	38	27	37	38	22	31	45	15	42	39	29	38	26	41	32
24	40	27	25	43	36	27	29	25	28	31	39	35	27	29	37	44	24	21	47	31	19	47	42	28	25	27	26	37	32	29	41	25	27	28	22	23	33	28	33	33	44	22	26	29	26	27	24	26	28	31	39	33	18	33	34	27	40	31	18	40	45	19	34	33	15	41	30	22	31	29	25	36	37	27	35	22	34	36	22	32	33	18	32	28	15	32	21	39	41
20	37	23	31	40	31	15	25	32	27	23	41	39	24	30	29	27	39	27	43	34	23	38	38	24	27	37	26	29	27	24	47	32	23	28	29	22	35	30	21	25	26	17	35	41	21	30	32	23	40	30	29	31	24	47	34	18	40	36	23	42	30	20	40	36	19	32	31	27	35	34	27	36	46	31	28	24	38	36	28	45	30	17	39	31	29	43	27	32	51
24	27	36	28	36	35	29	30	28	19	29	35	30	29	26	44	35	21	30	31	31	24	42	31	29	27	22	22	32	25	28	25	37	21	22	30	21	28	35	14	44	25	25	29	21	31	24	35	30	26	24	33	38	20	34	25	29	31	31	33	45	36	19	33	38	24	30	27	18	29	40	23	37	39	18	38	19	36	34	32	33	43	25	28	30	20	39	25	41	30
20	23	25	32	31	25	25	24	27	32	20	39	35	30	31	27	33	27	25	34	27	24	38	40	27	37	38	20	27	36	22	32	40	16	29	30	19	30	41	28	26	27	27	41	39	16	32	37	23	30	18	31	28	15	34	35	17	36	33	27	30	44	17	36	24	21	31	27	23	34	32	29	46	30	24	31	22	36	33	20	30	32	29	31	42	25	26	27	51	31
20	36	34	16	35	32	30	31	19	21	23	30	42	26	16	35	27	30	19	31	26	26	31	27	23	22	20	21	25	29	25	37	17	15	30	40	17	35	27	28	25	25	23	21	28	28	35	32	24	40	23	38	28	19	25	34	21	31	30	25	36	33	23	38	25	25	27	16	28	40	21	31	39	27	26	30	33	34	38	20	43	48	15	30	29	28	35	16	30	42
24	25	34	30	25	27	24	21	32	31	26	35	32	31	21	33	36	25	23	27	29	24	40	34	28	38	30	23	36	36	22	40	21	21	30	27	23	41	32	19	27	32	22	39	42	23	37	29	29	31	26	28	26	25	35	32	26	33	45	30	44	29	16	24	28	24	27	46	33	32	33	30	30	32	31	32	20	33	29	23	32	29	21	42	28	24	33	22	31	38
21	34	39	24	32	34	31	32	21	28	33	42	30	16	18	27	24	19	23	26	31	18	27	27	26	20	29	25	29	32	27	17	26	15	40	29	30	27	24	29	25	22	20	28	32	25	32	37	22	42	23	28	38	23	34	32	30	30	28	21	33	28	26	25	35	22	16	31	25	21	32	25	27	36	29	40	19	38	28	19	48	38	15	29	33	25	22	22	42	42
17	34	22	30	27	20	21	26	31	32	28	32	41	21	24	36	25	23	24	29	29	26	34	39	25	30	35	26	36	33	28	21	38	23	27	23	18	32	31	18	32	49	16	42	39	20	29	24	28	31	27	26	32	22	32	24	23	45	22	20	29	35	17	28	29	16	46	26	12	33	35	24	32	32	30	34	14	29	24	18	29	33	19	28	32	20	29	25	38	28
21	39	30	22	34	23	32	22	28	27	15	30	28	18	21	24	27	23	20	31	30	20	27	37	20	29	30	20	32	33	26	26	37	27	29	35	16	24	34	32	22	19	26	32	27	18	37	26	21	32	17	38	26	18	32	30	26	28	30	24	28	33	22	35	25	12	31	31	18	32	31	25	36	26	26	29	17	28	26	21	38	38	22	33	37	17	30	27	42	30
23	22	31	23	20	34	26	16	32	25	22	41	39	24	25	25	28	24	18	29	28	19	39	22	22	35	30	29	33	31	15	38	27	17	23	24	22	31	30	13	49	49	23	39	25	20	24	16	17	27	26	32	25	22	24	33	30	22	39	16	35	33	18	29	40	29	26	27	21	35	24	30	32	38	24	38	23	24	30	28	33	28	27	32	20	18	35	18	28	23
18	30	30	18	23	25	22	23	27	29	23	28	26	21	31	27	33	20	23	30	34	19	37	29	21	30	29	17	33	31	24	37	31	25	35	38	33	34	27	26	19	40	25	27	35	28	26	28	28	40	28	26	31	23	30	35	22	30	34	37	33	29	21	25	27	22	31	28	20	31	42	21	26	25	12	26	26	26	26	24	38	34	18	37	28	22	34	21	30	29
24	31	22	28	34	30	16	11	25	33	13	39	32	25	32	28	22	18	17	28	26	19	22	35	26	30	31	23	31	30	21	27	29	23	24	30	25	30	28	20	49	34	19	25	32	20	16	35	22	32	25	25	33	34	33	24	28	39	27	22	33	25	29	40	23	12	27	20	26	24	32	28	38	25	26	36	23	30	33	26	28	33	28	20	25	26	36	26	23	31
17	30	33	23	25	46	23	27	29	29	25	26	31	31	26	33	26	23	19	34	26	17	29	32	16	29	32	25	31	24	20	31	25	24	38	30	21	27	31	18	40	30	25	35	28	23	28	31	23	26	17	31	29	32	35	39	24	34	30	14	29	34	23	27	26	18	28	28	28	42	32	28	25	24	25	32	18	26	30	26	34	30	20	28	35	19	29	21	29	29
28	22	36	27	30	31	11	30	33	35	25	32	23	32	26	22	26	17	20	26	28	26	35	32	16	31	25	18	30	43	24	29	30	27	30	34	24	28	31	30	34	28	21	32	25	26	35	28	17	27	25	33	30	26	24	33	18	27	24	15	25	36	28	23	26	17	20	37	18	32	36	32	25	40	21	20	16	33	28	20	33	23	24	25	32	28	27	18	31	33
19	33	28	40	46	32	27	23	29	32	23	31	27	26	29	26	26	19	23	26	34	22	32	21	32	32	31	16	24	23	11	25	24	24	30	32	14	31	29	20	30	28	19	28	27	17	31	31	24	23	18	29	31	24	39	17	27	30	30	18	34	30	21	26	25	23	28	28	28	32	34	20	24	29	17	35	25	30	37	22	30	30	16	35	36	24	24	22	29	26
25	36	20	20	31	29	30	15	35	18	32	23	31	26	26	26	43	20	24	28	27	24	32	32	29	25	31	23	43	26	15	30	34	22	34	18	26	31	27	19	28	24	23	25	33	24	28	19	20	37	16	30	38	23	33	24	26	24	21	34	36	25	18	26	31	29	37	35	28	36	25	19	40	28	27	25	16	28	24	18	23	24	21	32	25	15	29	23	33	21
30	28	22	23	32	27	23	26	32	31	16	27	22	29	26	26	22	23	26	34	30	21	21	25	21	31	34	26	23	32	19	24	27	25	32	22	22	29	28	21	28	30	22	27	19	27	31	31	26	28	24	31	24	16	17	30	17	30	30	30	30	25	25	25	32	19	28	33	20	34	27	23	29	24	30	28	30	37	28	23	30	30	20	36	34	24	34	18	26	27
19	20	31	22	29	23	15	30	18	26	23	31	30	26	24	43	30	24	29	27	29	16	32	33	28	31	28	19	26	22	27	34	30	16	18	31	28	27	27	21	24	33	21	33	27	24	19	32	27	34	25	38	32	21	24	28	29	21	38	22	25	31	23	31	27	16	35	35	24	25	31	13	28	28	13	42	22	24	33	29	24	30	15	25	23	20	33	25	21	26
24	22	29	23	27	28	26	21	31	23	25	22	33	26	19	22	28	26	26	30	27	22	25	28	22	34	41	26	32	30	22	27	25	14	22	30	23	28	17	17	30	24	23	19	27	21	31	22	29	30	19	24	27	14	30	30	16	30	26	25	25	26	17	32	28	29	33	34	22	27	25	25	24	39	23	33	22	28	30	23	30	30	27	34	39	22	26	20	27	31
23	31	29	27	23	28	30	20	26	36	23	30	26	24	21	30	32	29	22	29	26	24	33	32	25	28	30	27	22	20	16	30	31	13	31	33	18	27	27	17	33	18	22	27	28	23	32	27	26	30	21	32	32	21	28	32	19	38	17	22	31	27	15	27	27	26	35	26	10	31	34	23	28	29	17	32	23	33	29	23	30	30	17	23	35	21	25	24	26	31
24	29	28	19	28	31	21	26	23	28	32	33	25	19	13	28	34	26	30	27	20	29	28	30	17	41	43	30	30	33	25	25	28	15	30	29	22	17	23	20	24	22	26	27	25	26	22	30	14	30	30	27	25	23	30	27	23	26	28	26	26	26	18	28	23	22	34	26	25	25	24	19	39	31	18	26	25	30	37	25	30	29	19	39	34	21	31	18	31	18
16	29	36	19	28	26	20	27	36	29	29	26	29	21	21	32	27	22	24	26	24	19	32	26	31	30	30	11	20	25	24	31	30	16	33	26	19	27	26	25	18	31	13	28	24	22	27	14	20	24	17	32	24	23	32	29	24	17	19	22	27	25	24	27	17	20	26	36	16	34	33	29	29	27	9	27	18	29	26	23	30	45	26	35	27	26	20	22	31	34
16	28	33	17	31	27	26	19	28	28	22	25	29	13	17	34	28	30	19	20	31	26	30	24	28	43	30	24	33	21	23	28	31	27	29	31	24	23	20	27	22	31	21	25	31	20	30	35	22	26	29	25	24	15	27	34	24	28	27	14	26	36	20	23	38	24	26	32	19	24	32	22	31	31	26	31	17	37	30	26	29	28	17	34	30	18	34	19	18	34
18	36	24	21	26	30	27	18	29	24	22	29	21	21	19	27	30	24	21	24	22	23	26	32	21	30	28	14	25	28	21	30	27	15	26	29	32	26	27	17	31	27	22	24	21	16	14	33	17	34	19	24	36	20	29	16	28	19	28	23	25	27	25	17	34	23	36	29	23	33	21	16	27	24	20	16	19	26	19	26	45	32	18	27	22	18	28	18	34	30
25	33	18	18	27	33	19	23	28	13	20	29	28	17	21	28	25	19	23	31	32	19	24	31	21	30	27	21	21	33	29	31	20	29	31	30	19	20	32	19	31	31	29	31	30	18	35	23	23	22	17	24	27	18	34	32	27	27	26	20	36	17	16	38	28	21	32	27	22	32	24	17	31	17	19	19	20	30	33	13	28	24	18	30	28	20	30	22	34	28
15	24	31	32	30	20	18	29	24	24	22	21	29	19	25	30	28	21	17	22	31	26	32	25	26	28	31	23	28	25	25	27	32	22	29	31	22	27	23	18	27	29	20	21	29	22	33	30	25	22	22	36	27	31	16	23	9	28	28	18	27	28	24	34	25	26	29	29	23	21	34	29	24	23	33	27	14	19	33	19	32	34	22	22	20	21	25	25	30	28
24	18	25	29	33	36	23	17	13	30	25	28	27	21	23	25	26	23	17	32	32	17	31	27	24	27	30	20	33	27	22	20	39	18	30	31	21	32	29	26	31	22	17	30	35	17	23	31	29	20	29	27	40	21	32	28	28	26	32	19	17	27	19	28	34	18	27	30	22	24	31	23	17	33	14	30	29	33	31	26	24	27	25	28	37	25	27	26	28	24
28	31	33	24	20	23	29	29	24	36	21	29	27	25	25	28	27	17	31	31	25	17	25	32	30	31	32	18	25	21	22	32	26	30	31	33	29	23	28	24	29	22	24	29	32	28	30	30	23	30	20	27	30	17	23	36	16	28	20	14	28	29	23	25	45	24	29	30	32	34	31	21	23	24	27	29	24	33	23	25	34	31	18	20	35	24	30	17	28	30
22	25	27	20	36	32	17	20	30	24	34	27	30	23	25	26	26	17	25	32	23	26	27	39	24	30	35	26	27	29	26	39	28	17	31	31	23	29	43	25	22	33	22	35	25	30	31	29	22	24	32	40	26	27	28	35	24	32	25	18	27	37	27	34	22	22	30	33	20	31	33	25	33	24	26	25	27	31	34	18	27	40	20	37	25	32	25	29	24	22
22	33	22	25	23	34	29	18	36	25	26	27	26	25	17	27	33	31	29	25	36	25	32	19	32	32	24	19	21	26	23	26	29	24	33	28	18	28	24	22	22	38	24	32	27	18	30	18	28	31	21	30	40	24	36	24	23	20	29	28	29	25	31	45	34	19	30	37	16	31	37	19	24	26	14	28	24	23	26	23	31	33	23	35	27	21	26	26	30	29
28	27	33	17	32	32	20	14	24	20	22	30	33	25	23	26	33	25	26	23	23	19	39	29	25	35	17	23	29	29	19	28	28	18	31	28	27	43	38	24	33	23	12	25	31	22	29	34	24	38	21	26	25	29	35	27	28	25	33	31	37	29	26	22	22	21	33	29	26	33	27	27	24	38	27	29	25	34	23	20	40	19	28	25	33	24	27	21	22	30
25	22	33	27	34	29	18	21	25	23	23	26	35	17	21	33	28	29	23	36	39	20	19	32	22	24	27	33	26	21	18	29	24	32	28	22	26	24	32	24	38	24	24	27	35	22	18	37	23	43	24	40	31	15	24	33	17	29	24	21	25	26	18	34	27	25	37	28	27	37	33	25	26	22	26	24	28	26	32	21	33	26	29	27	20	25	35	15	29	34
14	33	31	17	32	33	14	25	20	34	23	33	23	23	24	33	25	26	28	23	26	17	29	16	20	17	25	20	29	35	22	28	33	22	28	30	32	38	33	27	23	30	14	31	32	20	34	19	13	28	24	25	33	24	27	28	23	33	33	18	29	18	25	22	25	22	29	37	19	27	23	25	38	27	37	27	27	23	27	18	19	29	26	33	37	22	20	26	30	30
28	33	39	19	29	26	21	19	23	21	27	35	26	21	22	28	34	23	29	39	26	19	32	24	22	27	30	21	21	26	23	24	29	26	22	29	18	32	19	23	24	19	25	35	41	18	37	21	22	30	24	31	36	17	33	36	29	24	36	12	26	24	30	27	25	16	28	25	24	33	18	27	22	31	17	36	24	32	19	27	26	29	20	20	25	33	33	28	34	24
24	31	23	20	33	23	25	19	34	39	22	23	14	24	20	25	20	28	25	26	33	20	16	27	28	25	23	20	35	30	17	33	26	22	30	32	27	33	25	21	30	29	11	32	22	18	19	17	26	37	15	33	25	26	28	28	19	33	27	26	18	25	17	25	35	23	37	42	20	23	25	20	27	34	26	30	23	27	27	22	29	26	23	37	29	23	29	19	30	27
17	39	32	22	26	29	19	29	21	34	17	26	39	22	25	34	36	29	27	26	23	21	24	31	19	30	24	22	26	31	28	29	31	20	29	31	21	19	20	25	19	22	16	41	27	27	21	21	17	32	20	36	27	30	36	30	18	36	30	12	24	32	14	25	26	17	25	28	32	18	27	18	31	21	19	39	22	19	34	15	29	23	25	25	32	24	23	30	24	31
24	23	33	38	23	24	19	18	39	19	15	14	33	20	25	20	28	25	21	33	22	16	27	32	29	23	26	21	30	28	17	26	27	14	32	32	26	25	23	22	29	22	19	22	24	22	17	44	25	33	21	25	26	33	28	24	22	27	26	29	25	32	25	35	28	29	42	36	22	25	39	28	34	30	18	32	23	27	27	19	26	24	21	29	27	40	24	20	27	30
23	32	26	21	29	23	29	14	34	27	17	39	31	25	31	36	28	27	14	23	28	23	31	21	26	24	31	26	31	33	28	31	27	17	31	27	24	20	25	19	22	27	21	27	28	24	21	37	27	38	23	27	33	19	30	25	27	30	28	18	32	25	22	26	24	25	28	30	22	27	29	22	21	24	24	23	20	34	34	21	23	24	17	32	24	24	23	18	31	38
18	33	30	23	24	34	18	16	19	24	29	33	34	25	24	28	31	21	16	22	21	23	32	35	28	26	27	31	28	22	21	27	23	20	32	34	30	23	24	36	22	34	23	24	17	21	44	40	21	39	23	26	29	24	24	19	28	26	30	19	32	22	18	28	36	22	36	33	12	39	28	17	30	26	13	25	18	27	33	18	24	31	26	27	33	27	29	28	30	32
23	26	31	29	23	30	14	19	27	29	18	31	24	31	31	28	28	14	17	28	33	19	21	27	17	31	23	23	33	36	20	27	31	15	27	39	21	25	32	21	27	27	25	28	25	21	37	24	21	34	20	33	32	21	25	28	20	28	24	29	25	14	18	24	32	19	30	32	21	29	31	19	24	26	21	27	12	34	28	29	24	31	21	24	26	17	32	25	38	25
25	30	22	29	34	25	16	22	24	31	15	34	33	24	21	31	28	16	22	21	35	21	35	34	21	27	27	18	22	26	18	23	27	17	34	30	25	24	35	20	34	26	32	17	20	23	40	28	23	27	8	29	32	18	19	37	25	30	31	22	22	28	24	36	38	21	33	19	21	28	26	20	26	31	25	32	26	33	22	28	31	19	28	33	32	30	22	24	32	24
15	31	27	24	30	34	19	25	29	31	13	24	32	31	22	28	29	17	11	33	25	16	27	27	17	23	21	25	36	28	32	31	18	11	39	30	27	32	27	28	27	30	26	25	43	17	24	30	22	29	28	32	27	21	28	32	10	24	25	20	14	30	17	32	23	16	32	30	27	31	33	28	26	26	23	33	20	28	29	15	31	34	15	26	22	12	29	18	25	27
25	22	24	29	25	28	22	24	31	20	22	33	25	21	17	28	33	22	17	35	37	20	34	20	18	27	29	20	26	33	26	27	33	21	30	20	39	35	35	21	26	35	27	20	25	19	28	32	25	21	20	32	19	18	37	30	27	31	21	21	28	31	15	38	31	30	19	27	23	26	26	18	31	28	32	33	18	22	37	12	19	29	18	32	25	19	21	23	24	32
31	27	31	22	34	34	25	17	31	35	21	32	31	22	23	29	23	11	25	25	22	20	27	30	19	21	31	16	28	25	15	18	20	28	30	25	23	27	34	28	30	23	24	43	18	25	30	27	8	24	25	27	22	17	32	22	17	25	28	24	30	32	19	23	30	28	30	27	23	33	23	30	26	25	27	30	23	29	30	27	34	23	25	22	35	21	43	30	27	19
20	24	26	21	28	35	24	18	20	32	21	25	18	17	24	33	31	17	23	37	41	20	20	27	23	29	27	19	33	24	18	33	24	27	20	28	25	35	34	13	35	29	24	25	28	18	32	36	22	24	18	19	35	18	30	25	19	21	26	24	31	28	20	31	31	22	27	24	23	26	20	22	28	24	31	24	20	37	37	24	29	31	23	25	24	10	35	19	32	23
22	31	18	22	34	37	17	20	35	25	20	31	21	23	29	23	22	25	16	22	21	22	30	24	24	31	31	19	25	29	18	20	21	24	25	27	19	34	20	15	23	33	18	18	25	11	27	34	20	22	26	22	30	16	22	19	14	28	29	22	32	29	24	30	38	19	27	23	25	23	30	24	25	27	19	36	19	30	26	23	23	26	32	35	32	15	31	24	19	34
28	26	20	22	35	24	18	13	32	31	21	18	31	24	19	31	36	23	20	41	35	19	27	28	16	27	29	20	24	23	23	24	26	25	28	32	11	34	21	21	29	24	23	28	24	13	36	25	25	25	21	35	20	21	25	34	22	26	22	20	28	32	19	31	25	26	24	31	19	20	35	20	24	32	17	23	26	37	27	22	31	18	21	24	28	21	29	28	23	31
22	18	25	23	37	37	20	24	25	29	24	21	28	29	27	22	18	16	19	21	29	25	24	44	17	31	28	23	29	31	21	21	30	14	27	19	17	20	23	25	33	39	24	25	37	21	34	21	23	24	19	30	25	19	19	30	24	29	20	16	29	29	19	38	23	23	23	33	23	30	23	21	27	25	17	23	20	26	29	27	26	42	20	32	23	17	25	14	34	25
16	20	25	32	24	33	13	24	31	28	22	31	31	19	19	36	27	20	18	35	24	23	28	29	18	29	22	14	23	24	19	26	37	21	32	33	27	21	33	24	24	39	18	24	30	24	25	27	23	30	24	20	27	17	34	27	29	22	25	36	32	27	15	25	26	24	31	24	14	35	30	14	32	31	35	36	17	27	24	27	18	15	22	28	27	19	20	15	31	30
13	25	24	26	37	21	24	30	29	36	25	28	31	27	18	18	29	19	25	29	25	19	44	24	19	28	33	24	31	29	23	30	17	19	19	26	16	23	33	21	39	39	27	37	29	25	21	31	24	32	21	25	28	32	30	29	18	20	26	26	29	32	21	23	27	23	33	28	30	23	22	14	25	38	22	22	18	29	27	23	42	25	22	23	30	31	33	27	25	30
18	25	28	21	33	24	24	17	28	29	19	31	34	19	23	27	29	18	21	24	31	22	29	24	23	22	31	23	24	25	23	37	29	23	33	33	19	33	30	21	39	28	19	30	28	20	27	23	22	30	24	27	26	22	27	31	23	25	36	20	27	35	16	26	25	23	24	19	22	30	23	19	31	22	12	35	20	24	32	22	15	31	19	27	41	22	24	25	30	21
11	24	30	23	21	36	30	28	36	31	23	31	29	18	19	29	26	25	22	25	27	23	24	33	21	33	21	20	29	26	24	17	26	21	26	28	20	33	30	21	39	28	29	29	30	16	31	23	24	31	20	28	22	15	29	26	16	26	33	16	32	26	21	27	29	22	28	26	26	22	22	27	38	35	18	20	22	27	31	27	25	15	17	30	18	18	27	29	30	22
22	28	18	20	24	33	17	22	29	24	19	34	25	23	26	29	26	21	21	31	20	16	24	32	25	31	17	26	25	29	12	29	31	25	33	24	21	30	28	24	28	19	20	28	33	18	23	28	19	28	25	26	24	26	31	31	25	36	27	26	35	28	22	25	20	16	19	30	22	23	32	32	22	33	19	28	19	32	23	20	31	32	31	41	30	18	36	24	21	28
19	30	22	25	36	33	28	22	31	26	15	29	31	19	19	26	20	22	22	27	25	27	33	29	24	21	20	16	26	19	33	26	25	30	28	28	13	30	24	20	28	21	30	30	23	18	23	29	21	29	21	22	33	18	26	26	24	33	19	29	26	19	19	29	27	22	26	40	23	22	24	23	35	31	15	23	21	31	36	15	15	25	18	18	24	18	18	18	22	25
26	18	34	22	33	29	22	19	24	26	12	25	29	26	20	26	24	21	23	20	29	24	32	28	17	17	27	23	29	33	27	31	29	27	24	23	19	28	31	24	19	33	26	33	30	23	28	24	15	24	27	24	13	19	31	14	23	27	16	25	28	29	26	20	28	22	30	26	36	32	32	22	33	26	12	23	30	23	23	22	32	21	16	30	28	25	32	27	28	30
24	22	35	19	33	33	22	24	26	17	18	31	32	19	24	20	31	22	28	25	17	35	29	31	25	20	25	17	19	27	24	25	22	27	28	26	15	24	31	25	21	23	29	23	18	24	29	26	30	25	12	33	38	21	26	25	23	19	21	21	19	28	20	27	22	19	40	31	14	24	23	18	31	30	24	26	14	36	27	25	25	28	10	24	25	26	26	21	25	17
18	34	24	33	29	35	19	22	26	20	17	29	30	20	21	24	23	23	32	29	24	20	28	22	24	27	35	22	33	41	21	29	22	20	23	27	25	31	20	25	33	32	25	30	32	12	24	29	22	30	23	13	27	24	14	24	10	16	18	20	29	28	33	28	30	19	26	24	16	32	28	25	26	32	17	28	24	23	38	22	21	28	19	28	22	21	30	22	30	29
18	35	18	26	33	34	24	12	17	23	21	32	22	24	13	31	33	28	24	17	30	14	31	35	14	25	24	16	27	28	29	22	30	26	26	21	25	31	22	12	23	16	31	18	37	22	26	25	25	29	28	38	28	18	25	22	19	21	27	20	28	24	29	22	18	13	31	26	11	23	19	20	30	25	21	21	21	27	26	25	28	25	23	25	35	20	29	21	17	30
14	24	22	20	35	25	22	26	20	35	18	30	29	21	32	23	23	32	22	24	26	12	22	24	20	35	33	22	41	31	21	22	21	25	27	22	24	20	20	17	32	33	25	32	25	26	29	25	28	30	19	27	30	25	24	21	29	18	31	25	28	21	18	30	26	17	24	21	25	28	33	25	32	20	16	19	27	38	29	23	28	24	26	22	26	21	25	21	29	29
29	18	32	31	34	24	12	25	23	23	17	22	22	13	23	33	28	24	23	30	39	23	35	26	20	24	29	16	28	34	24	30	30	18	21	25	14	22	34	21	16	28	15	37	28	19	25	30	23	26	27	28	28	17	22	24	28	27	28	35	24	20	21	18	34	16	26	34	21	19	24	22	25	27	18	27	17	26	30	18	25	38	22	35	23	24	26	14	30	31
25	22	40	15	25	34	26	22	35	27	38	29	26	32	19	23	31	22	18	26	25	23	24	29	21	33	22	28	31	26	19	21	27	27	22	23	21	20	27	19	33	27	17	25	33	15	25	25	20	30	30	30	29	25	21	26	25	31	16	22	21	25	24	26	27	26	21	26	25	33	25	28	20	33	29	29	17	29	23	19	24	29	24	26	32	19	39	17	29	22
18	32	22	21	24	28	25	25	23	25	14	22	32	23	23	28	25	23	15	39	24	21	26	35	30	29	26	21	34	24	22	30	29	26	25	27	24	34	28	14	28	37	26	28	29	19	30	29	17	31	18	28	28	34	24	29	16	28	25	22	20	32	20	34	36	20	34	25	18	24	30	21	27	24	17	27	18	30	23	19	38	30	19	23	27	24	20	33	31	27
23	40	36	18	34	27	22	20	27	30	21	26	26	19	27	31	28	18	18	25	17	19	29	33	19	22	23	30	26	27	21	27	23	22	23	32	28	27	38	23	27	29	20	33	23	23	25	18	21	24	20	29	27	20	26	34	22	16	33	21	25	27	17	27	30	10	26	27	17	25	24	21	33	38	23	28	16	23	22	23	29	31	22	32	27	15	28	20	22	32
25	22	31	24	28	34	25	22	25	25	17	32	30	23	17	25	23	15	16	24	30	21	35	28	25	26	23	19	24	27	19	29	26	22	27	30	27	28	18	26	37	20	20	29	21	26	29	18	23	17	25	28	37	15	29	25	16	25	26	25	32	31	31	36	23	25	25	33	21	30	22	20	24	27	17	26	19	23	33	16	30	23	20	27	24	16	26	15	27	18
18	36	27	22	27	33	20	26	30	32	19	26	25	27	16	28	25	18	17	17	22	28	33	24	23	23	27	19	27	22	19	23	32	24	32	30	19	38	31	28	29	28	18	23	24	12	18	27	37	23	21	27	27	22	34	24	19	33	22	16	27	27	20	30	26	17	27	24	23	24	23	30	38	20	23	24	24	22	25	26	31	32	16	27	31	16	25	21	32	21
23	31	23	21	34	31	22	29	25	35	23	30	19	17	26	23	35	16	19	30	34	15	28	24	18	23	27	20	27	29	22	26	32	24	30	27	22	18	29	17	20	35	24	21	33	22	18	30	17	30	22	37	37	25	25	28	21	26	25	26	31	33	22	23	30	23	33	24	20	22	25	20	27	27	17	23	29	33	28	23	23	29	16	24	27	18	33	27	18	17
21	27	21	15	33	23	26	17	32	23	18	25	29	16	18	25	28	17	29	22	34	20	24	27	19	27	19	22	22	31	25	32	21	25	30	28	19	31	27	30	28	27	22	24	20	19	27	32	27	19	20	27	20	22	24	25	19	22	25	17	27	18	25	26	34	24	24	27	21	23	23	17	20	39	21	28	19	25	35	23	32	26	18	31	23	29	26	15	21	21
31	23	24	22	31	31	29	19	35	25	20	19	16	26	12	35	32	19	21	34	34	22	24	24	15	27	18	23	29	35	16	32	21	36	27	16	18	29	28	20	35	23	19	33	25	25	30	26	23	28	26	37	32	18	28	29	22	25	24	19	33	30	23	30	31	18	24	28	20	25	30	24	27	33	16	22	22	28	25	19	29	29	12	27	29	29	27	16	17	25
25	21	34	22	23	24	17	26	23	26	22	29	29	18	25	28	23	29	15	34	29	19	27	22	16	19	23	20	31	24	23	21	30	16	28	25	14	27	34	25	27	31	31	20	23	14	32	14	22	31	21	20	29	16	25	24	17	25	33	28	18	23	23	34	28	23	27	27	16	23	25	25	39	19	18	21	20	35	30	14	26	31	20	23	21	17	25	21	21	28
21	24	27	19	31	28	19	24	25	28	23	16	25	12	20	32	23	21	22	34	15	25	24	27	17	18	23	29	35	22	26	21	41	28	16	20	21	28	35	26	23	29	16	25	26	23	26	21	22	27	12	32	30	17	29	27	19	24	23	13	30	22	22	31	25	19	28	34	22	30	31	24	33	24	25	22	21	25	21	23	29	29	27	29	32	25	29	31	25	29
19	34	37	27	24	23	26	17	26	21	29	29	24	25	17	23	27	15	24	29	22	12	22	22	24	23	31	19	24	26	26	30	28	28	25	25	24	34	19	24	31	22	25	23	25	24	14	18	15	15	24	29	36	27	24	22	18	33	28	17	23	27	16	28	40	26	27	29	17	25	27	20	19	39	25	35	20	30	27	22	31	25	19	21	21	21	33	18	28	19
22	27	27	25	28	32	24	28	28	21	18	25	26	20	21	23	21	22	17	15	19	14	27	25	22	23	26	17	22	21	18	41	15	19	20	28	20	35	27	11	29	20	14	26	29	23	21	26	20	24	18	30	21	16	27	31	20	23	26	23	22	30	21	25	24	21	34	24	17	31	20	22	24	24	21	21	19	21	25	25	29	25	19	32	29	20	23	21	29	33
30	37	26	27	23	19	17	11	21	26	22	24	22	17	23	27	20	24	16	22	28	24	22	28	28	31	27	15	26	32	22	28	25	24	25	34	27	19	31	12	22	27	16	25	26	21	18	38	28	23	18	36	32	17	22	18	30	28	23	19	27	24	22	40	27	20	29	48	28	27	34	22	39	25	19	26	19	27	30	22	25	31	26	21	29	28	25	16	19	24
20	27	23	20	32	21	28	26	21	30	23	26	24	21	30	21	16	17	21	19	22	25	25	28	16	26	19	21	21	28	13	15	21	24	28	30	22	27	25	11	20	16	17	29	28	26	26	34	21	20	28	21	21	18	31	26	14	26	35	19	30	37	7	24	24	25	24	28	23	20	32	26	24	22	25	39	17	25	27	21	25	25	21	29	16	25	24	25	33	32
24	26	21	24	19	16	11	19	26	22	27	22	31	23	16	20	31	16	23	28	20	26	28	27	29	27	28	19	32	34	15	25	20	19	34	38	26	31	34	23	27	26	24	26	28	22	38	20	20	20	24	32	26	21	18	22	20	23	29	22	24	34	18	27	28	23	48	20	24	34	21	29	25	26	18	26	18	30	23	17	31	39	19	29	33	18	20	21	24	34
24	23	32	14	21	31	26	26	30	17	24	24	23	30	22	16	24	21	20	22	34	21	28	25	36	19	32	22	28	22	27	21	28	25	30	31	19	25	28	27	16	36	25	28	31	23	34	31	22	32	26	21	27	26	26	18	12	35	22	20	37	37	21	24	27	17	28	33	20	32	32	17	22	23	16	27	20	27	31	19	25	25	28	16	23	22	32	24	32	29
20	21	33	16	16	33	19	20	22	29	18	31	29	16	21	31	22	23	18	20	28	19	27	27	18	28	25	24	34	26	21	20	17	20	38	32	23	34	23	19	26	25	18	28	26	21	20	32	12	25	19	26	29	26	22	29	35	29	22	28	34	23	36	28	27	25	20	33	22	21	29	20	26	19	21	35	20	23	30	19	39	23	15	33	26	28	28	24	34	34
20	32	19	27	31	28	26	21	17	23	11	23	40	22	20	24	22	20	19	34	28	19	25	30	12	32	28	19	22	27	28	28	34	29	31	40	18	28	28	19	36	35	16	31	28	31	31	28	22	21	28	27	30	23	18	25	28	22	30	9	37	25	20	27	27	24	33	28	13	32	22	22	23	27	11	35	19	31	26	20	25	36	23	23	29	22	26	21	29	29
17	33	27	20	33	30	20	24	29	30	23	29	33	21	28	22	23	18	12	28	34	23	27	31	19	25	25	20	26	29	28	17	35	24	32	15	28	23	19	23	25	22	23	26	18	19	32	21	21	22	25	29	21	23	29	19	32	22	30	22	23	36	21	27	34	23	33	40	15	29	33	21	19	26	26	32	18	30	19	18	23	33	19	26	24	18	22	22	34	22
15	19	31	27	28	36	21	20	23	26	26	40	29	20	22	22	29	19	26	28	29	30	30	19	22	28	24	22	27	28	17	34	19	26	40	33	22	28	37	14	35	34	20	28	36	15	28	26	14	23	18	30	26	15	25	24	18	30	32	36	25	30	20	27	25	32	28	23	14	22	28	12	27	34	18	26	15	26	26	21	36	19	19	29	23	21	27	14	29	32
17	27	29	22	30	24	24	20	30	12	17	33	26	28	18	23	26	12	32	34	27	17	31	34	28	25	27	19	29	29	19	35	26	23	15	14	19	19	32	24	22	34	21	18	24	14	21	24	21	24	24	21	32	31	19	25	21	30	26	25	36	21	23	34	30	34	40	23	19	33	32	19	26	37	27	24	19	19	34	22	33	28	20	24	21	25	28	23	22	27
15	31	24	21	36	27	20	24	26	32	16	29	31	22	30	29	19	26	16	29	33	23	19	28	27	24	32	18	28	27	17	19	30	26	33	24	25	37	25	19	34	24	23	36	24	21	26	20	29	26	21	26	27	23	24	30	20	32	23	17	30	27	21	25	19	22	23	35	26	28	24	18	34	27	19	30	22	26	25	21	19	20	33	23	35	20	22	20	32	35
22	29	32	21	24	28	20	19	12	16	14	26	29	18	24	26	25	32	26	27	25	30	34	30	22	27	26	19	29	26	27	26	32	26	14	24	17	32	26	24	34	32	23	24	33	13	24	19	18	30	25	32	19	17	25	32	18	26	19	24	21	26	22	30	22	38	23	17	27	32	40	32	37	31	21	24	19	34	23	27	28	28	25	21	29	17	27	25	27	27
15	24	32	24	27	30	24	29	32	26	25	31	28	30	30	19	35	16	23	33	30	19	28	25	29	32	32	27	27	27	20	30	23	18	24	27	31	25	21	15	24	27	23	24	22	30	20	30	23	26	18	27	24	19	30	28	18	23	31	24	27	27	31	19	25	17	35	39	27	24	30	19	27	23	23	18	20	25	32	27	20	34	22	35	19	23	25	28	35	22
23	32	23	24	28	26	19	20	16	28	23	29	22	24	20	25	27	26	29	25	30	25	30	30	27	26	26	15	26	32	19	32	25	25	24	20	21	26	22	21	32	31	24	33	18	21	19	30	23	23	16	19	25	31	32	16	16	19	24	16	26	31	17	22	24	25	17	29	15	40	27	26	31	33	24	17	22	23	24	18	28	25	16	29	26	19	25	23	27	29
30	32	25	15	30	31	29	16	26	25	22	28	25	30	20	35	26	23	19	30	23	22	25	29	24	32	32	18	27	34	12	23	36	14	27	24	30	21	35	15	27	18	20	22	29	26	30	23	19	21	30	24	33	23	28	30	21	31	27	20	27	23	17	25	19	20	39	27	23	30	31	24	23	19	21	19	23	32	29	25	34	21	24	19	34	15	26	18	22	24
11	23	20	21	26	30	20	18	28	26	20	22	26	20	18	27	21	29	17	30	32	28	30	25	16	26	19	14	32	18	23	25	26	25	20	32	21	22	22	16	31	33	16	18	31	26	30	33	21	25	18	25	30	18	16	18	25	24	24	22	31	35	17	24	20	23	29	19	13	27	38	25	33	18	19	21	27	24	38	20	25	24	17	26	17	22	24	21	29	25
13	25	26	24	31	24	16	21	25	26	25	25	23	20	20	26	31	19	29	23	30	13	29	30	22	32	26	20	34	33	11	36	27	35	24	27	24	35	32	30	18	24	17	29	27	18	23	21	22	30	16	33	30	16	30	24	26	27	29	27	23	33	29	19	20	14	27	26	19	31	26	26	19	25	17	24	21	29	28	12	21	30	22	34	30	32	31	22	24	33
25	20	19	18	30	25	18	16	26	30	14	26	29	18	18	21	32	17	15	32	34	20	25	24	18	19	23	23	18	24	28	26	26	23	32	28	14	22	27	17	33	30	17	31	24	18	33	29	24	36	20	30	30	23	18	32	24	24	28	28	35	30	28	20	30	21	19	27	19	38	21	24	18	36	22	30	18	38	31	22	24	19	22	17	31	28	29	17	25	33
21	26	20	14	24	26	21	24	26	23	24	23	19	20	25	31	17	29	24	30	17	26	30	24	21	26	18	14	33	19	26	27	24	28	27	33	26	32	23	22	24	18	24	27	21	19	21	26	24	23	25	30	26	21	24	22	14	29	23	26	33	23	17	20	29	19	26	17	22	26	23	11	25	25	27	29	17	28	16	19	30	21	17	30	38	25	31	27	33	35
14	19	25	20	25	28	16	25	30	23	21	29	20	18	18	32	24	15	21	34	30	19	24	23	16	23	29	28	24	27	21	26	22	25	28	27	18	27	30	20	30	29	28	24	31	15	29	32	25	21	20	30	23	22	32	22	28	28	28	20	30	30	17	30	22	20	27	30	13	21	20	17	36	24	14	31	25	31	25	22	19	33	25	31	19	27	27	24	33	23
19	20	20	12	26	33	24	17	23	30	22	19	32	25	19	17	41	24	19	17	30	27	24	25	23	18	36	28	19	28	21	24	30	17	33	36	19	23	33	20	18	24	26	21	26	21	26	28	15	26	19	26	25	17	22	23	23	23	32	22	23	25	18	29	27	16	17	26	24	23	27	16	25	18	27	25	14	16	23	24	21	27	18	38	32	19	35	23	35	29
24	25	32	19	28	22	25	25	23	28	20	20	28	18	19	24	25	21	27	30	34	25	23	33	24	29	25	23	27	30	15	22	25	25	27	29	18	30	37	18	29	33	17	31	23	31	32	26	24	21	22	23	28	18	22	29	16	28	36	16	30	27	24	22	30	21	30	31	22	20	31	23	24	20	17	31	27	25	16	19	33	29	27	19	18	26	26	24	23	30
29	20	16	22	33	27	17	24	30	18	18	32	28	19	21	41	42	19	19	30	28	18	25	23	23	36	26	22	28	24	25	30	19	18	36	30	19	33	31	20	24	33	21	26	32	25	28	26	32	25	22	25	25	26	23	29	12	32	26	21	25	34	15	27	36	21	26	26	26	27	39	15	18	15	13	24	25	23	30	31	27	29	23	32	27	20	28	21	29	27
12	32	26	23	22	21	25	20	28	24	18	28	33	19	20	25	30	27	18	34	28	24	33	32	18	25	29	20	30	27	18	25	33	12	29	28	28	37	23	27	33	28	24	23	26	18	26	19	18	32	22	28	25	14	29	22	21	36	24	22	27	36	19	30	26	23	31	21	26	31	27	25	20	31	22	21	21	16	36	16	29	25	19	18	34	23	30	17	30	30
19	16	32	24	27	33	24	16	18	13	14	28	31	21	22	42	32	19	26	28	29	21	23	17	19	26	23	18	24	35	24	19	25	15	30	23	15	31	25	19	33	21	16	32	22	23	26	32	23	28	15	25	24	15	29	33	26	26	30	19	34	24	30	36	31	22	26	32	20	39	13	21	15	30	24	25	25	30	32	20	29	24	16	27	30	27	37	18	27	26
29	26	18	22	21	25	20	34	24	28	14	33	20	20	17	30	33	18	19	28	32	21	32	22	23	29	18	20	27	31	18	33	30	11	28	26	25	23	30	22	28	28	19	26	28	14	19	21	19	33	22	25	26	20	22	38	25	24	40	19	36	30	23	26	40	16	21	31	16	27	21	20	31	22	17	32	26	36	30	17	25	22	27	34	17	11	26	23	30	25
24	32	25	19	33	30	16	28	13	21	28	31	33	22	23	32	26	26	22	29	26	21	17	19	13	23	21	14	35	26	11	25	35	21	23	29	16	25	18	17	21	28	18	22	32	19	32	21	13	26	22	24	21	21	33	38	11	30	25	25	24	32	17	31	26	17	32	30	17	13	29	24	30	18	19	19	12	32	18	26	24	30	20	30	22	20	26	24	26	25
27	18	31	23	25	21	34	25	28	34	21	20	37	17	21	33	24	19	21	32	28	29	22	28	15	18	32	19	31	24	14	30	29	27	26	24	16	30	27	16	28	24	17	28	29	18	21	26	20	24	23	26	27	26	38	41	24	40	27	26	30	25	25	40	24	30	31	29	18	21	25	24	22	29	17	35	24	30	27	27	22	36	24	17	34	17	24	21	25	23
21	25	30	20	30	26	28	24	21	35	16	33	25	23	31	26	34	22	23	26	19	25	19	37	21	21	31	19	26	17	24	35	24	20	29	35	18	18	31	20	28	29	16	32	20	20	21	28	21	24	13	21	27	23	38	33	18	25	19	24	32	36	22	26	28	28	30	24	17	29	30	15	18	27	18	26	24	18	23	26	30	32	27	22	33	25	21	33	25	17
15	31	27	26	21	34	25	20	34	32	30	37	37	21	21	24	35	21	15	28	22	26	28	20	16	32	28	21	24	22	25	29	30	19	24	27	15	27	36	26	24	20	18	29	31	22	26	39	25	31	21	27	29	22	41	33	20	27	22	18	25	26	28	24	29	17	29	31	24	25	25	28	29	17	24	24	22	27	28	13	36	28	19	34	22	22	15	21	23	27
25	30	34	20	26	31	24	22	35	36	22	25	23	31	21	34	25	23	21	19	27	26	37	24	21	31	28	21	17	24	25	24	36	17	35	16	19	31	28	21	29	25	22	20	31	30	28	35	15	32	20	27	35	16	33	28	13	19	33	17	36	22	9	28	27	13	24	34	17	30	23	25	27	36	18	25	14	23	24	23	32	30	13	33	29	15	20	31	17	29
14	27	19	28	34	17	20	16	32	18	25	37	28	21	23	35	29	15	21	22	28	19	20	25	15	28	31	22	22	20	22	30	27	15	27	32	18	36	21	19	20	30	14	31	32	21	39	23	18	23	29	29	29	15	33	34	30	22	37	23	26	31	17	29	31	24	31	27	17	25	28	30	17	38	26	20	34	28	37	17	28	32	22	22	26	10	36	25	27	42
20	34	26	18	31	31	22	14	36	20	12	23	33	21	23	25	25	21	30	27	31	28	24	27	23	28	30	26	24	28	21	36	28	23	16	35	15	28	30	20	25	20	16	31	27	31	35	19	12	24	15	35	29	30	28	27	19	33	29	27	22	25	21	27	33	27	34	34	22	23	24	29	36	27	21	29	29	24	24	15	30	19	22	29	30	32	21	11	29	25
29	19	21	16	17	37	16	16	18	24	20	28	30	23	14	29	34	21	21	28	28	20	25	25	21	31	33	24	20	32	21	27	26	28	32	34	21	21	29	22	30	22	15	32	30	15	23	18	29	25	18	29	34	17	34	32	15	37	25	19	31	35	24	31	19	18	27	21	23	28	24	17	38	36	29	41	15	37	27	23	32	21	27	26	32	20	25	25	42	34
21	26	26	15	31	25	14	24	20	15	18	33	22	23	27	25	21	30	22	31	28	21	27	27	21	30	27	21	28	23	24	28	25	27	35	26	21	30	24	20	20	24	14	27	33	20	19	28	20	37	16	29	29	19	27	26	15	29	16	24	25	31	17	33	25	19	34	31	21	24	27	25	27	23	15	21	14	24	25	18	19	19	22	30	26	31	23	19	25	25
17	21	27	17	37	26	16	19	24	29	21	30	22	14	18	34	17	21	27	28	30	17	25	21	18	33	32	21	32	22	23	26	28	23	34	27	21	29	22	23	22	22	22	30	29	19	18	28	18	24	9	34	23	23	32	32	15	25	27	29	35	25	15	19	27	21	21	28	16	24	24	16	36	25	6	23	23	27	27	16	21	21	23	32	14	26	22	22	34	27
20	26	21	21	25	28	24	13	15	19	18	22	38	27	18	21	26	22	30	28	18	20	27	23	21	27	26	22	23	30	16	25	30	19	26	25	19	24	24	19	24	36	17	33	23	29	28	26	19	35	24	29	24	25	26	29	23	16	22	23	31	26	19	25	24	20	31	33	18	27	30	20	23	21	18	24	28	25	25	14	19	20	27	26	18	20	26	17	25	30
19	27	26	17	26	23	19	21	29	21	19	22	27	18	23	17	20	27	27	30	26	24	21	22	12	32	38	24	22	26	12	28	33	20	27	35	26	22	28	29	22	28	23	29	33	20	28	38	17	20	24	23	29	22	32	19	15	27	21	23	25	27	21	27	31	20	28	25	34	24	29	21	25	19	24	24	25	27	28	24	21	26	25	14	23	27	32	15	27	21
25	21	35	19	28	31	13	24	19	16	25	38	28	18	18	26	30	30	13	18	40	23	23	24	24	26	22	14	30	25	22	30	27	15	25	27	13	24	16	15	36	26	12	23	27	21	26	23	12	22	22	24	24	30	29	26	17	22	23	16	26	40	27	24	26	15	33	31	28	30	30	14	21	34	21	27	23	25	36	18	20	22	16	18	29	15	13	30	30	26
18	26	20	28	23	23	21	28	21	33	20	27	26	23	24	20	25	27	20	26	22	18	22	28	29	38	26	26	26	23	14	33	21	17	35	37	17	28	30	24	28	26	25	33	24	30	38	36	19	25	27	29	30	21	19	33	18	21	33	20	27	25	19	31	20	27	25	27	20	29	38	23	19	28	19	31	23	28	19	26	26	27	16	23	27	20	34	32	21	29
27	35	27	25	31	28	24	21	16	25	29	28	27	18	16	30	37	13	26	40	38	18	24	31	17	22	17	19	25	33	21	27	30	14	27	24	22	16	25	25	26	24	16	27	26	35	23	21	20	26	28	24	32	26	26	34	24	23	22	30	40	32	27	26	22	21	31	35	23	30	21	22	34	21	27	31	16	36	27	18	22	24	24	29	29	13	34	24	26	28
16	20	32	21	23	25	28	25	33	29	17	26	24	24	29	25	30	20	20	22	27	17	28	28	26	26	15	27	23	30	13	21	25	33	37	26	29	30	26	26	26	29	26	24	32	21	36	28	23	33	23	30	34	22	33	33	21	33	38	15	25	35	27	20	28	19	27	25	16	38	25	16	28	27	35	30	12	19	32	19	27	26	16	27	25	17	25	22	29	26
22	27	34	15	28	33	21	15	25	23	21	27	31	16	16	37	29	26	24	38	27	24	31	27	22	17	31	23	33	25	23	30	33	12	24	19	18	25	24	19	24	26	22	26	24	21	21	29	19	26	28	32	14	31	34	28	21	22	35	24	32	25	22	22	30	18	35	22	19	21	24	19	21	28	18	28	28	27	32	19	24	33	21	29	32	17	27	20	28	35
17	32	24	22	25	31	25	13	29	28	25	24	21	29	26	30	30	20	16	27	38	19	28	23	22	15	25	30	30	21	21	25	25	22	26	36	22	26	29	21	29	28	29	32	20	14	28	25	10	21	22	34	32	23	33	25	23	38	22	19	35	30	23	28	31	20	25	22	23	25	24	20	27	27	31	26	23	32	23	22	26	32	19	25	30	25	25	17	26	22
24	34	23	19	33	23	15	24	23	34	19	31	23	16	22	29	36	24	27	27	32	19	27	30	29	31	29	20	25	28	17	33	18	23	19	21	16	24	21	14	26	23	29	24	30	19	29	25	25	27	18	14	20	19	28	16	21	35	25	18	25	23	17	30	20	23	22	31	19	24	23	27	28	28	25	29	20	32	22	19	33	22	31	32	25	21	30	25	35	36
17	24	20	24	31	17	13	18	28	27	15	21	25	26	20	30	26	16	24	38	25	17	23	23	20	25	32	19	21	41	27	25	32	21	36	24	13	29	27	16	28	23	26	20	19	15	25	25	19	27	11	32	32	24	25	33	22	22	19	21	30	24	13	31	19	29	22	24	16	24	39	27	27	25	27	28	19	23	26	18	32	27	23	30	23	14	31	24	22	32
21	23	34	20	23	23	24	17	34	25	23	23	35	22	16	36	24	27	23	32	21	17	30	27	20	29	20	20	28	31	23	18	21	34	21	24	17	21	30	23	23	21	14	30	32	19	25	24	28	29	11	20	31	23	16	27	23	25	27	24	23	38	23	20	29	21	31	28	29	23	26	32	28	23	12	34	17	22	20	20	22	25	24	25	32	19	27	18	36	16
20	20	31	24	17	27	18	21	27	26	23	25	25	20	20	26	30	24	23	25	21	16	23	19	21	32	27	27	41	32	28	32	29	16	24	21	16	27	27	15	23	24	28	19	28	19	25	21	18	30	20	32	25	20	33	25	16	19	34	24	24	29	27	19	37	23	24	28	15	39	30	25	25	26	23	25	19	26	23	23	27	28	24	23	25	23	15	29	32	30
30	34	30	13	23	22	17	29	25	32	34	35	24	16	11	24	30	23	25	21	23	19	27	27	20	20	22	28	31	27	28	21	31	22	24	30	15	30	19	24	21	20	13	32	27	20	24	23	24	33	25	31	19	27	27	28	24	27	30	19	38	29	17	29	28	23	28	32	24	26	34	18	23	33	27	24	29	20	32	19	25	22	21	32	29	21	30	15	16	24
14	31	30	17	27	29	21	24	26	32	30	25	25	20	27	30	26	23	28	21	16	31	19	29	23	27	31	19	32	25	19	29	37	17	21	25	23	27	24	19	24	22	19	28	27	17	21	30	16	24	30	25	29	26	25	14	19	34	29	17	29	24	23	37	22	19	28	27	26	30	19	24	26	28	21	26	23	23	20	13	28	25	20	25	28	18	31	17	30	33
21	30	17	31	22	23	29	17	32	27	23	24	26	11	26	30	34	25	13	23	23	18	27	28	25	22	20	24	27	27	17	31	28	16	30	30	22	19	37	22	20	34	14	27	20	22	23	22	23	24	29	19	33	19	28	29	24	30	23	23	29	27	23	28	33	13	32	29	21	34	29	19	33	32	25	17	17	32	17	15	22	18	20	29	25	29	36	24	24	20
22	30	22	15	29	29	24	21	32	30	29	25	21	27	18	26	21	28	21	16	28	27	29	30	19	31	29	21	25	27	24	37	22	25	25	28	20	24	31	18	22	31	26	27	31	9	30	33	33	31	18	29	21	22	14	22	20	29	24	20	24	31	23	22	32	16	27	29	27	19	32	20	28	28	20	24	25	20	27	29	25	27	26	28	27	28	35	14	33	28
19	17	28	20	23	22	17	21	27	41	27	26	24	26	15	34	28	13	19	23	29	20	28	27	21	20	31	10	27	25	24	28	37	17	30	24	17	37	24	16	34	27	24	20	18	14	22	28	22	39	23	33	26	16	29	24	20	23	27	25	27	20	24	33	27	25	29	21	21	29	23	15	32	42	26	23	19	17	27	22	18	20	19	25	29	23	28	24	20	35
24	22	20	18	29	27	21	20	30	35	18	21	21	18	16	21	27	21	22	28	38	23	30	32	21	29	26	12	27	33	19	22	30	11	28	33	14	31	35	26	31	24	16	31	21	25	33	27	17	25	22	21	23	15	22	23	17	24	22	19	31	28	25	32	27	26	29	27	15	32	32	20	28	28	24	32	20	27	20	22	27	32	21	27	31	16	17	28	28	27
19	28	27	24	22	26	21	16	41	36	22	24	32	15	18	28	20	19	20	29	25	24	27	22	18	31	22	27	25	30	17	37	24	18	24	24	34	24	12	23	27	32	10	18	22	25	28	31	22	30	22	26	32	16	24	32	19	27	29	18	20	19	32	27	41	27	21	38	21	23	34	24	42	30	23	31	16	27	29	26	20	22	19	29	29	22	26	25	35	30
12	20	32	28	27	23	20	14	35	26	20	21	28	16	21	27	28	22	30	38	37	21	32	30	23	26	22	24	33	32	20	30	32	29	33	29	19	35	27	22	24	26	16	21	32	21	27	24	19	27	15	23	32	31	23	27	16	22	29	25	28	37	26	27	35	20	27	14	21	32	26	22	28	31	20	28	26	20	18	29	32	27	16	31	27	19	28	18	27	25
26	27	33	17	26	29	16	26	36	33	20	32	26	18	20	20	23	20	28	25	22	15	22	31	15	22	26	20	30	27	18	24	27	21	24	24	20	12	23	22	32	29	19	22	22	20	31	25	25	25	22	32	13	18	32	32	24	29	30	17	19	23	22	41	24	19	38	24	15	34	32	12	30	25	16	22	30	29	25	20	22	35	22	29	31	21	31	25	30	30
19	32	25	15	23	24	14	27	26	29	23	28	29	21	31	28	19	30	22	37	22	20	30	32	24	22	23	20	32	21	18	32	31	17	29	42	19	27	26	19	26	32	22	32	27	10	24	27	14	25	16	32	22	19	27	18	22	29	22	16	37	39	13	35	24	21	14	26	26	26	17	23	31	24	26	29	19	18	30	21	27	27	20	27	31	24	25	23	25	31
17	33	27	19	29	35	26	18	33	32	22	26	20	20	16	23	18	28	27	22	24	25	31	32	19	26	35	23	27	20	17	27	19	29	24	22	23	23	28	17	29	26	32	22	16	25	25	38	18	25	22	13	20	15	32	31	19	30	22	26	23	23	14	24	24	23	24	27	30	32	30	24	25	28	22	26	25	25	19	24	35	26	28	31	30	28	38	24	30	30
24	25	26	19	24	23	27	22	29	26	18	29	20	31	14	19	28	22	19	22	27	28	32	30	14	23	25	17	21	17	26	31	30	41	42	21	27	26	27	14	32	31	17	27	30	23	27	22	12	33	21	22	29	28	18	35	26	22	28	12	39	27	16	24	30	20	26	32	19	17	31	26	24	27	28	25	20	30	29	27	27	22	15	31	36	22	20	19	31	20
26	27	23	18	35	22	18	29	32	28	15	20	31	16	24	18	32	27	23	24	23	10	32	28	24	35	27	17	20	28	25	19	27	22	22	33	25	28	28	23	26	32	24	16	28	14	38	21	21	21	29	20	29	23	31	35	26	22	25	33	23	27	10	24	21	17	27	27	22	30	24	23	28	27	23	35	16	19	22	21	26	31	18	30	24	21	25	22	30	33
19	26	32	19	23	22	22	27	26	26	16	20	20	14	28	28	24	19	20	27	20	25	30	35	19	25	29	26	17	23	25	30	29	29	21	22	10	27	28	16	31	23	20	30	26	17	22	32	18	20	30	29	29	24	35	32	23	28	33	29	27	21	26	30	19	17	32	29	28	31	35	24	27	18	17	38	19	29	27	28	22	35	22	36	24	21	26	19	20	25
22	23	26	18	22	24	29	21	28	29	24	31	37	24	18	32	34	23	20	23	30	13	28	17	10	27	31	21	28	27	21	27	31	21	33	30	22	28	30	18	32	22	28	28	29	29	21	22	19	35	21	29	27	21	35	32	18	25	31	28	27	31	21	21	33	25	27	26	18	24	35	21	27	30	13	31	19	22	24	28	31	24	13	24	36	13	22	17	33	30
20	32	31	18	22	31	27	17	26	38	24	20	26	28	13	24	26	20	20	20	37	25	35	35	19	29	27	22	23	26	14	29	22	21	22	25	19	28	30	25	23	26	18	26	35	28	32	39	23	24	21	29	33	20	32	19	21	33	29	18	21	26	12	19	28	14	29	25	22	35	33	25	18	13	22	22	32	27	32	25	35	25	21	24	24	23	25	18	25	25
28	26	35	22	24	26	21	13	29	22	24	37	16	18	24	34	24	20	21	30	25	18	17	21	22	31	22	21	27	24	20	31	26	19	30	25	16	30	28	22	22	28	17	29	17	33	22	22	19	19	25	27	21	27	32	32	22	31	34	18	31	26	22	33	27	16	26	30	23	35	25	33	30	31	23	27	20	24	34	21	24	21	22	36	25	32	17	18	30	27
11	31	37	28	31	26	17	30	38	21	19	26	31	13	32	26	41	20	15	37	25	16	35	23	19	27	29	16	26	25	17	22	21	17	25	22	12	30	24	16	26	28	19	35	25	16	39	20	28	35	21	33	23	21	19	24	16	29	32	17	26	21	23	28	24	22	25	24	33	33	24	14	13	21	27	30	27	32	41	28	25	31	13	24	24	16	23	26	25	21
33	35	31	23	26	28	13	21	22	24	25	16	27	24	22	24	27	21	16	25	28	33	21	27	15	22	32	16	24	27	21	26	27	24	25	26	28	28	28	22	28	28	20	17	19	20	22	29	18	37	28	21	21	25	32	27	17	34	26	23	26	30	25	27	34	15	30	36	16	25	22	17	31	32	20	25	19	34	27	30	21	19	23	25	32	24	22	31	27	19
15	37	41	23	26	22	30	18	21	28	26	31	26	32	14	41	26	15	14	25	26	26	23	25	25	29	23	17	25	34	23	21	28	24	22	31	18	24	31	27	28	15	25	25	22	24	20	30	28	24	21	23	24	22	24	31	21	32	27	25	21	32	19	24	25	23	24	33	28	24	18	31	21	25	23	31	23	41	28	25	31	27	18	24	34	19	24	15	21	22
22	31	33	16	28	36	21	17	24	28	16	27	29	22	22	27	28	16	20	28	29	22	27	25	16	32	25	22	27	19	17	27	26	26	26	31	20	28	23	10	28	25	21	19	24	25	29	24	20	17	21	21	26	16	27	22	24	26	31	21	30	26	26	34	24	18	36	30	23	22	24	23	32	26	15	25	21	27	30	30	19	28	25	32	25	17	26	18	19	24
22	41	26	24	22	36	18	22	28	27	22	26	20	14	21	26	33	14	19	26	37	24	25	30	20	23	30	23	34	25	30	28	31	15	31	25	19	31	27	25	15	22	22	22	29	18	30	28	18	28	20	24	29	27	31	32	18	27	20	26	32	24	18	25	25	23	33	33	20	18	40	22	25	23	20	26	18	28	34	22	27	19	22	34	27	33	27	21	22	24
14	33	27	22	36	27	17	23	28	23	14	29	29	22	17	28	19	20	21	29	33	15	25	26	15	25	21	21	19	20	21	26	23	19	31	25	24	23	18	22	25	26	21	24	24	21	24	26	27	18	16	26	41	15	22	20	22	31	22	21	26	20	14	24	21	32	30	35	21	24	24	21	26	23	24	32	17	30	30	27	28	25	18	25	25	18	29	20	24	22
22	26	18	18	36	28	22	19	27	29	27	20	29	21	18	33	31	19	25	37	35	20	30	26	19	30	23	21	25	21	17	31	24	19	25	29	15	27	21	28	22	29	16	29	26	25	28	21	12	31	27	29	29	15	32	35	23	20	31	17	24	28	19	25	23	20	33	25	28	40	27	27	23	32	18	35	20	34	20	19	19	29	26	27	22	26	24	28	24	28
24	27	24	23	27	28	23	21	23	28	25	29	30	17	23	19	34	21	23	33	34	21	26	40	22	21	20	17	20	27	27	23	23	28	25	35	22	18	30	26	26	24	15	24	23	18	26	38	25	29	17	41	21	10	20	29	27	22	27	23	20	29	18	21	33	22	35	30	32	24	31	20	23	19	30	22	16	30	29	33	25	32	21	25	25	15	22	23	22	19
23	18	26	26	28	21	19	31	29	27	23	29	26	18	22	31	20	25	31	35	31	21	26	26	20	23	18	12	21	28	14	24	27	31	29	25	28	21	30	21	29	26	23	26	32	20	21	26	21	17	22	29	25	20	35	21	20	31	25	24	28	29	20	23	39	20	25	28	20	27	23	23	32	30	15	26	22	20	28	17	29	27	20	22	22	31	22	19	28	21
20	24	33	16	28	27	21	13	28	24	18	30	23	23	25	34	27	23	19	34	29	22	40	19	22	20	15	21	27	22	28	23	20	17	35	20	37	30	28	26	24	33	25	23	28	18	38	24	17	27	18	21	22	27	29	33	13	27	24	33	29	27	19	33	33	15	30	29	14	31	27	27	19	26	18	24	18	29	17	25	32	31	18	25	21	15	36	17	19	30
21	26	32	18	21	16	31	22	27	30	8	26	26	22	17	20	27	31	21	31	31	19	26	32	12	18	32	18	28	34	26	27	38	26	25	23	24	30	27	28	26	36	15	32	23	21	26	26	23	34	23	25	30	26	21	32	21	25	22	19	29	22	20	39	25	15	28	30	22	23	24	26	30	33	22	31	29	28	21	28	27	26	12	22	28	20	24	12	21	27
20	33	24	24	27	34	13	28	24	28	21	23	26	25	23	27	27	19	17	29	24	16	19	30	16	15	23	23	22	29	27	20	31	18	20	28	17	28	26	28	33	28	30	28	21	20	24	30	26	27	20	22	26	23	33	18	18	24	31	21	27	29	21	33	30	23	29	29	23	27	26	26	26	22	19	31	26	17	36	20	31	21	17	21	29	26	30	16	30	27
21	32	34	16	16	34	22	19	30	13	17	26	30	17	16	27	21	21	18	31	19	15	32	35	16	32	26	19	34	31	21	38	32	20	23	19	17	27	22	15	36	26	18	23	32	17	26	35	18	27	15	30	29	29	32	27	24	22	29	21	22	28	27	25	31	19	30	29	22	24	27	22	33	26	26	27	23	21	27	25	26	26	19	28	30	19	31	29	27	25
28	24	23	20	34	32	28	28	28	24	30	26	33	23	22	27	29	17	18	24	31	22	30	33	33	23	34	22	29	29	13	31	24	24	28	33	16	26	32	26	28	19	17	21	33	17	30	34	20	21	18	26	20	15	18	22	15	31	25	33	29	24	25	30	26	21	29	28	20	26	29	25	22	32	21	24	25	36	30	19	21	23	23	29	29	24	29	30	27	25
29	34	29	31	34	26	19	25	13	35	11	30	28	16	27	21	27	18	27	19	21	23	35	31	20	26	31	17	31	26	24	32	21	24	19	20	18	22	23	24	26	18	23	32	30	24	35	23	14	24	24	29	24	27	27	21	15	29	15	20	28	20	20	31	26	18	29	25	14	27	29	24	26	25	23	27	22	27	22	26	26	25	30	30	25	24	36	15	25	24
23	23	27	29	32	22	28	18	24	27	24	33	23	22	16	29	23	18	23	31	23	21	33	31	11	34	29	17	29	29	20	24	29	24	33	31	25	32	32	25	19	25	31	33	27	21	34	26	27	34	23	20	26	15	22	32	18	25	22	21	24	31	16	26	34	18	28	21	21	29	26	17	32	23	25	28	11	30	21	16	23	29	25	29	26	22	34	12	25	32
24	29	27	15	26	24	25	21	35	36	24	28	35	27	25	27	23	27	16	21	21	24	31	32	23	31	28	18	26	36	18	21	36	14	20	33	19	23	32	19	18	28	22	30	19	21	23	30	13	32	23	24	25	23	21	27	24	15	19	25	20	28	23	26	25	28	25	25	19	29	30	17	25	24	22	37	16	22	31	8	25	25	20	25	27	24	33	21	24	31
26	27	27	23	22	26	18	32	27	28	25	23	27	16	12	23	34	23	17	23	20	22	31	23	13	29	29	22	29	22	17	29	31	13	31	34	17	32	27	15	25	29	23	27	42	20	26	29	19	21	18	26	30	17	32	24	23	22	33	17	31	35	16	34	26	26	21	24	20	26	18	28	23	27	21	20	26	21	21	28	29	26	24	26	30	23	18	23	32	23
14	27	23	16	24	21	21	20	36	30	25	35	31	25	21	23	21	16	19	21	20	21	32	22	18	28	23	26	36	17	18	36	25	24	33	27	22	32	30	31	28	27	21	19	31	20	30	26	18	23	24	25	22	26	27	31	29	19	33	26	28	18	21	25	26	25	25	26	22	30	31	22	24	33	17	29	20	31	20	19	25	24	23	27	27	16	24	24	31	28
22	27	21	23	26	17	32	66	28	28	18	27	16	12	73	34	20	17	58	20	25	14	23	25	23	29	28	23	22	24	21	31	23	23	34	34	23	27	18	20	29	25	28	42	19	26	29	19	20	31	18	30	20	21	24	28	32	33	22	20	35	22	19	26	21	25	24	30	18	18	21	28	27	31	23	31	27	21	19	18	26	28	15	30	26	17	26	22	23	13
19	23	9	16	21	12	20	308	30	7	30	31	6	21	324	21	9	19	308	20	10	15	22	4	25	23	13	26	17	7	24	25	10	8	27	12	20	30	11	20	27	8	25	31	7	23	26	8	23	23	20	22	8	25	31	11	20	33	11	26	18	11	22	26	5	17	26	5	20	31	12	21	33	4	30	32	12	20	14	17	24	9	16	27	10	20	27	22	28	9
63	21	6	70	17	5	66	243	28	6	71	16	5	73	237	20	4	58	270	25	6	83	25	12	57	28	8	57	24	12	63	23	8	74	34	7	52	18	13	66	25	7	67	19	6	60	19	10	76	24	61	20	6	68	28	13	64	22	8	72	22	7	59	21	4	64	30	10	72	21	11	68	31	15	64	19	54	19	6	57	28	6	69	26	9	63	24	72	13	8
355	9	8	307	12	5	308	246	7	3	302	6	7	324	252	9	3	308	245	10	5	334	4	4	331	13	8	309	7	5	349	10	5	320	12	5	314	11	7	320	8	7	326	7	2	344	8	6	341	8	306	8	0	310	11	6	376	11	10	328	11	3	335	5	10	303	5	4	341	12	6	322	4	7	312	4	327	14	6	340	9	12	326	10	9	316	6	318	9	5
249	6	7	291	5	5	243	196	6	5	232	5	7	237	244	4	12	270	249	6	8	274	12	8	270	8	7	276	12	6	247	8	11	271	7	8	264	13	6	256	7	8	253	6	8	248	10	8	235	11	265	6	6	247	13	5	218	8	4	297	7	6	254	4	7	245	10	6	225	11	4	269	15	7	242	5	241	6	6	254	6	6	260	9	2	222	5	285	8	6
242	8	9	238	5	5	246	202	3	9	235	7	9	252	203	3	5	245	209	5	6	237	4	9	234	8	7	228	5	6	263	5	6	257	5	6	245	7	6	247	7	2	260	2	8	249	6	5	224	9	246	0	8	216	6	10	257	10	6	261	3	7	259	10	11	219	4	10	230	6	4	230	7	4	265	12	241	6	8	257	12	4	251	9	10	230	8	253	5	9
241	7	5	226	5	6	196	200	5	9	219	7	6	244	211	12	13	249	203	8	2	236	8	7	233	7	4	224	6	10	239	11	5	230	8	3	229	6	6	247	8	6	217	8	4	230	8	8	195	9	216	6	6	224	5	6	217	4	9	250	6	2	213	7	10	214	6	5	235	4	4	221	7	10	209	9	226	6	7	224	6	7	223	2	3	188	6	225	6	10
201	9	7	194	5	7	202	180	9	10	233	9	5	203	180	5	6	209	196	6	8	200	9	7	217	7	4	201	6	8	208	6	6	203	6	5	216	6	14	221	2	6	196	8	9	188	5	8	217	6	214	8	8	241	10	3	235	6	9	220	7	8	201	11	7	222	10	6	203	4	8	213	4	6	180	4	211	8	6	209	4	8	222	10	5	204	6	210	9	2
179	5	6	203	6	4	200	150	9	6	220	6	10	211	185	13	4	203	148	2	6	182	7	8	225	4	7	204	10	8	200	5	10	199	3	6	177	6	7	198	6	4	180	4	6	197	8	6	198	6	200	6	7	209	6	8	189	9	11	198	2	15	194	10	9	190	5	6	199	4	6	181	10	5	170	4	201	7	6	203	7	4	198	3	6	200	5	183	10	8
183	7	7	185	7	2	180	153	10	8	186	5	6	180	155	6	4	196	174	8	9	200	7	12	201	4	6	190	8	3	184	6	4	183	5	9	190	14	4	216	6	6	190	9	6	152	8	7	201	6	191	8	9	181	3	13	189	9	3	191	8	4	182	7	4	171	6	4	174	8	6	196	6	3	173	7	164	6	7	175	8	6	178	5	5	192	8	188	2	2
167	6	3	164	4	8	150	147	6	6	183	10	3	185	155	4	3	148	155	6	7	184	8	5	163	7	9	163	8	1	157	10	9	179	6	2	154	7	5	163	4	9	168	6	5	140	6	8	190	7	172	7	9	187	8	1	172	11	6	175	15	7	167	9	8	197	6	8	160	6	5	169	5	6	170	11	189	6	2	179	4	2	170	6	10	166	4	184	8	10
163	7	6	146	2	9	153	137	8	10	138	6	8	155	124	4	6	174	160	9	5	154	12	7	160	6	4	161	3	5	161	4	9	165	9	6	152	4	6	159	6	10	148	6	4	170	7	7	172	8	137	9	2	172	13	4	172	3	4	148	4	7	158	4	8	157	4	10	134	6	3	159	3	5	171	6	158	7	9	173	6	5	165	5	4	176	6	165	2	7
135	3	11	142	8	7	147	116	6	5	155	3	4	155	139	3	6	155	118	7	13	150	5	7	142	9	5	131	1	1	144	9	4	164	2	5	171	5	6	151	9	7	146	5	7	114	8	9	145	10	164	9	6	154	1	4	152	6	7	141	7	5	150	8	1	150	8	8	151	5	7	151	6	3	144	6	148	2	0	139	2	6	135	10	6	128	5	159	10	6
135	6	3	141	9	9	137	119	10	13	126	8	6	124	122	6	8	160	141	5	6	144	7	6	153	4	3	120	5	3	142	9	9	131	6	6	125	6	9	138	10	8	147	4	2	138	7	6	136	9	120	2	7	138	4	5	154	4	5	132	7	6	136	8	4	134	10	8	166	3	5	123	5	7	124	4	140	9	5	145	5	1	140	4	7	144	3	114	7	3
135	11	58	153	7	4	116	144	5	2	121	4	8	139	91	6	5	118	104	13	4	132	7	8	130	5	4	141	1	7	135	4	10	132	5	5	129	6	9	122	7	8	133	7	7	126	9	4	140	6	127	6	6	118	4	3	133	7	7	135	5	4	107	1	7	128	8	3	118	7	12	131	3	1	111	3	123	0	8	130	6	4	134	6	7	134	12	106	6	4
124	3	304	113	9	7	119	118	13	5	124	6	9	122	121	8	5	141	89	6	11	132	6	4	130	3	9	123	3	5	122	9	11	123	6	6	123	9	5	119	8	6	149	2	4	123	6	4	123	6	127	7	4	130	5	7	105	5	5	109	6	8	120	4	4	127	8	5	139	5	6	109	7	7	115	1	142	5	5	114	1	7	123	7	9	142	5	130	3	7
108	58	273	122	4	5	144	108	2	2	97	8	8	91	95	5	10	104	114	4	8	98	8	5	117	4	7	118	7	4	109	10	4	104	5	6	123	9	8	119	8	1	120	7	5	108	4	6	106	10	118	6	6	111	3	7	107	7	7	101	4	12	133	7	6	116	3	2	124	12	1	112	1	3	114	10	113	8	6	118	4	5	116	7	8	117	13	141	4	11
126	304	259	110	7	8	118	103	5	6	112	9	3	121	86	5	9	89	80	11	8	103	4	7	92	9	8	105	5	8	99	11	7	99	6	4	126	5	11	111	6	2	100	4	6	102	4	7	126	13	105	4	6	125	7	3	106	5	9	101	8	4	97	4	11	98	5	10	104	6	3	104	7	8	108	4	89	5	12	122	7	8	102	9	8	116	7	109	7	1
106	273	200	101	5	7	108	80	2	10	104	8	9	95	88	10	8	114	92	8	4	93	5	9	96	7	14	106	4	8	98	4	8	93	6	6	95	8	7	89	1	11	97	5	6	104	6	10	84	10	123	6	5	115	7	8	104	7	7	94	12	5	104	6	8	93	2	3	108	1	6	106	3	6	87	4	103	6	8	86	5	9	109	8	9	115	8	88	11	7
106	259	183	91	8	5	103	109	6	7	98	3	10	86	74	9	5	80	89	8	6	100	7	14	95	8	9	93	8	9	111	7	3	89	4	3	80	11	8	110	2	5	85	6	7	70	7	7	99	5	112	6	8	86	3	7	98	9	7	91	4	2	84	11	6	97	10	9	80	3	6	94	8	6	96	5	96	12	5	113	8	14	91	8	7	101	4	132	1	7
77	200	166	87	7	6	80	79	10	10	71	9	8	88	74	8	9	92	70	4	7	92	9	10	109	14	3	90	8	5	105	8	4	86	6	11	90	7	8	73	11	8	71	6	3	90	10	3	111	7	82	5	13	75	8	10	102	7	8	87	5	15	92	8	5	122	3	3	91	6	6	90	6	9	84	10	84	8	7	91	9	4	84	9	6	93	4	82	7	9
92	183	160	77	5	4	109	81	7	7	96	10	7	74	75	5	4	89	68	6	6	94	14	9	77	9	8	83	9	3	78	3	5	100	3	6	76	8	6	76	5	5	74	7	4	88	7	3	69	7	76	8	6	98	7	5	82	7	8	81	2	7	83	6	8	81	9	6	81	6	9	92	6	5	93	5	92	5	2	111	14	3	81	7	6	89	5	74	7	7
70	166	158	85	6	5	79	72	10	7	79	8	8	74	73	9	3	70	73	7	5	83	10	4	88	3	9	80	5	5	93	4	8	69	11	3	72	8	8	75	8	10	82	3	3	85	3	6	72	7	80	13	4	74	10	8	97	8	5	82	15	3	80	5	4	77	3	4	75	6	7	76	9	4	76	5	72	7	7	95	4	7	78	6	10	87	7	88	9	10
86	160	128	72	4	9	81	79	7	10	74	7	6	75	69	4	3	68	76	6	10	79	9	8	67	8	6	63	3	4	79	5	12	77	6	5	75	6	8	72	5	7	77	4	10	79	3	6	73	3	74	6	8	81	5	6	80	8	9	74	7	5	87	8	5	91	6	4	70	9	4	79	5	15	67	7	63	2	5	77	3	4	62	6	11	76	4	76	7	0
65	158	129	87	5	49	72	69	7	10	72	8	7	73	55	3	13	73	75	5	6	69	4	8	54	9	12	59	5	8	66	8	3	73	3	10	77	8	10	76	10	3	71	3	2	72	6	7	62	5	70	4	7	67	8	7	70	5	7	82	3	5	83	4	11	83	4	7	68	7	7	75	4	8	75	5	68	7	8	92	7	6	68	10	4	65	2	80	10	5
68	128	136	72	9	283	79	49	10	7	70	6	7	69	47	3	9	76	64	10	4	64	8	5	70	6	4	67	4	11	69	12	8	55	5	6	56	8	4	70	7	6	70	10	5	73	6	5	61	5	52	8	3	71	6	4	72	9	4	83	5	5	66	5	3	69	4	6	69	4	5	71	15	7	78	6	76	5	4	66	4	5	70	11	5	64	6	62	0	3
66	129	101	67	49	204	69	61	10	8	63	7	6	55	69	13	12	75	49	6	8	60	8	7	63	12	5	75	8	1	63	3	6	66	10	8	75	10	4	65	3	6	68	2	5	64	7	4	57	5	74	7	9	58	7	7	71	7	3	64	5	6	58	11	3	82	7	5	68	7	7	70	8	8	64	6	80	8	5	58	6	5	52	4	3	56	9	58	5	6
73	136	109	65	283	219	49	52	7	10	70	7	7	47	57	9	10	64	61	4	5	57	5	11	62	4	6	67	11	5	64	8	7	61	6	6	64	4	7	65	6	8	51	5	13	48	5	5	61	7	55	3	4	50	4	10	62	4	5	61	5	6	75	3	9	68	6	5	80	5	6	61	7	6	63	5	54	4	9	70	5	4	64	5	5	54	4	73	3	9
48	101	103	53	204	198	61	54	8	3	66	6	4	69	51	12	7	49	47	8	14	64	7	5	69	5	5	59	1	10	56	6	7	57	8	2	63	4	12	61	6	10	56	5	6	61	4	4	52	3	62	9	8	54	7	7	67	3	6	50	6	8	55	3	5	59	5	7	62	7	6	69	8	4	72	4	60	5	6	76	5	5	58	3	7	72	7	55	6	4
58	109	97	61	219	215	52	52	10	7	70	7	5	57	65	10	5	61	51	5	4	58	11	4	71	6	8	67	5	3	55	7	6	75	6	10	46	7	4	60	8	4	70	13	6	58	5	4	59	4	56	4	5	41	10	3	51	5	5	60	6	5	68	9	6	48	5	5	48	6	8	74	6	5	52	7	54	9	5	70	4	8	63	5	6	39	5	68	9	4
63	103	87	49	198	163	54	52	3	4	61	4	8	51	53	7	8	47	46	14	8	65	5	11	54	5	5	53	10	10	47	7	12	67	2	3	49	12	5	61	10	8	60	6	3	55	4	7	51	7	65	8	6	65	7	9	64	6	5	47	8	5	57	5	9	53	7	9	43	6	8	58	4	7	71	6	54	6	4	57	5	4	45	7	0	63	11	51	4	6
50	97	86	50	215	156	52	58	7	5	49	5	3	65	36	5	6	51	50	4	10	65	4	6	54	8	5	56	3	7	59	6	4	56	10	6	49	4	8	48	4	8	63	6	10	60	4	5	54	6	56	5	8	71	3	14	52	5	6	62	5	8	63	6	7	45	5	5	48	8	10	49	5	8	52	5	57	5	4	50	8	4	42	6	6	60	4	64	4	11
57	87	77	54	163	137	52	50	4	5	40	8	4	53	46	8	6	46	59	8	8	49	11	8	59	5	8	46	10	7	56	12	6	48	3	7	49	5	6	48	8	6	44	3	7	48	7	7	51	6	46	6	2	50	9	6	47	5	6	38	5	5	53	9	5	50	9	8	44	8	8	80	7	5	46	8	69	4	9	51	4	9	53	0	7	42	10	54	6	6
50	86	65	50	156	157	58	48	5	8	64	3	3	36	58	6	5	50	51	10	6	46	6	2	45	5	6	53	7	5	47	4	10	48	6	4	42	8	6	56	8	9	44	10	8	58	5	6	55	8	57	8	1	48	14	7	59	6	3	56	8	9	44	7	8	34	5	7	50	10	3	46	8	7	43	9	49	4	10	47	4	4	47	6	3	45	8	54	11	5
44	77	72	57	137	134	50	46	5	58	45	4	5	46	41	6	7	59	54	8	10	40	8	4	46	8	10	53	7	5	53	6	9	44	7	5	35	6	5	46	6	6	40	7	12	40	7	12	47	3	43	2	5	44	6	8	46	6	6	41	5	10	44	5	6	36	8	13	46	8	3	48	5	1	48	10	44	9	6	35	9	5	50	7	6	52	4	51	6	6
44	65	54	39	157	125	48	38	8	296	46	3	6	58	60	5	10	51	48	6	6	58	2	10	36	6	8	40	5	10	39	10	2	46	4	6	51	6	6	49	9	7	36	8	1	42	6	7	40	7	56	1	6	38	7	5	55	3	8	38	9	6	50	8	5	32	7	6	30	3	4	43	7	9	42	7	42	10	5	45	4	6	48	3	4	47	7	56	5	9
42	72	64	51	134	84	46	36	58	251	41	5	8	41	36	7	6	54	37	10	9	48	4	10	44	10	6	45	5	9	38	9	7	41	5	5	36	5	9	42	6	8	45	12	3	52	12	4	57	7	37	5	5	39	8	4	43	6	11	27	10	8	58	6	4	46	13	7	53	3	11	41	1	2	48	7	52	6	10	46	5	13	46	6	7	41	4	40	6	8
35	54	55	37	125	99	38	45	296	196	32	6	4	60	39	10	3	48	36	6	6	43	10	7	40	8	5	40	10	8	36	2	2	37	6	3	49	6	6	37	7	5	46	1	4	41	7	7	38	6	52	6	6	38	5	3	39	8	8	57	6	8	40	5	6	38	6	7	51	4	7	50	9	6	38	8	46	5	13	43	6	7	33	4	9	47	5	46	9	4
42	64	49	38	84	88	36	33	251	199	51	8	9	36	47	6	6	37	53	9	7	44	10	5	39	6	8	43	9	7	42	7	9	38	5	4	42	9	4	40	8	7	37	3	7	42	4	8	33	11	44	5	4	44	4	4	47	11	6	39	8	11	39	4	7	41	7	8	45	11	3	35	2	9	38	6	46	10	2	47	13	5	47	7	5	35	9	43	8	11
47	55	57	41	99	104	45	37	196	196	45	4	8	39	38	3	13	36	41	6	2	35	7	5	43	5	11	43	8	14	44	2	3	44	3	9	29	6	8	43	5	5	41	4	8	45	7	6	44	7	40	6	7	35	3	7	34	8	10	39	8	7	40	6	3	37	7	6	48	7	3	34	6	7	36	6	44	13	7	35	7	7	35	9	9	41	2	42	4	7
26	49	50	41	88	70	33	42	199	163	46	9	5	47	43	6	7	53	24	7	9	44	5	5	34	8	6	32	7	6	41	9	11	38	4	9	34	4	7	48	7	5	28	7	11	34	8	2	46	6	34	4	4	40	4	8	46	6	4	26	11	4	30	7	7	43	8	9	35	3	5	36	9	6	33	5	34	2	7	45	5	5	38	5	5	41	3	50	11	6
42	57	48	43	104	75	37	36	196	150	34	8	10	38	44	13	6	41	29	2	7	26	5	7	37	11	5	35	14	7	44	3	4	26	9	5	52	8	9	40	5	5	40	8	8	37	6	2	29	11	40	7	8	32	7	4	37	10	10	49	7	7	35	3	9	31	6	6	39	3	10	44	7	6	38	7	39	7	6	43	7	3	44	9	6	38	3	32	7	2
42	50	53	20	70	57	42	44	163	153	26	5	15	43	33	7	8	24	26	9	2	24	5	2	34	6	0	33	6	4	45	11	6	32	9	11	35	7	7	42	5	3	28	11	7	42	2	7	36	8	55	4	7	48	8	4	26	4	9	36	4	3	38	7	10	47	9	2	46	5	7	41	6	7	48	11	31	7	6	34	5	7	40	5	11	51	8	43	6	5
45	48	37	37	75	65	36	25	150	124	38	10	7	44	37	6	11	29	47	7	12	43	7	5	31	5	4	27	7	5	30	4	8	37	5	9	45	9	5	33	5	5	37	8	8	42	2	3	34	7	41	8	7	35	4	4	42	10	2	30	7	1	32	9	5	47	6	9	34	10	2	50	6	9	38	8	34	6	3	31	3	7	34	6	6	33	6	41	2	8
44	53	46	30	57	68	44	32	153	126	27	15	50	33	29	8	2	26	43	2	6	37	2	4	40	0	7	40	4	8	45	6	4	31	11	5	34	7	5	37	3	4	37	7	4	37	7	1	41	5	33	7	9	34	4	6	32	9	10	37	3	7	34	10	11	39	2	9	41	7	3	38	7	4	38	9	37	6	6	31	7	6	42	11	5	38	9	41	5	8
40	37	44	43	65	54	25	28	124	123	39	7	238	37	44	11	5	47	31	12	3	47	5	7	25	4	6	37	5	9	41	8	3	28	9	10	33	5	8	33	5	7	26	8	9	27	3	3	28	5	39	7	4	33	4	7	40	2	7	40	1	3	34	5	6	41	9	10	31	2	4	36	9	6	35	5	34	3	7	32	7	4	32	6	11	32	7	39	8	4
37	46	34	40	68	61	32	27	126	93	41	50	230	29	27	2	3	43	34	6	9	38	4	16	27	7	7	29	8	10	47	4	4	28	5	5	35	5	6	25	4	8	35	4	7	30	1	6	40	8	29	9	8	47	6	10	40	10	1	42	7	3	40	11	7	32	9	10	35	3	5	36	4	9	28	7	38	6	3	45	6	7	39	5	4	43	6	32	8	10
27	44	43	36	54	49	28	19	123	125	35	238	213	44	35	5	7	31	31	3	5	42	7	7	27	6	6	32	9	5	25	3	8	22	10	5	28	8	8	44	7	4	29	9	7	24	3	9	26	1	33	4	6	34	7	4	31	7	9	45	3	12	33	6	3	30	10	5	29	4	5	37	6	14	38	7	36	7	9	33	4	13	28	11	12	39	8	41	4	5
23	34	35	31	61	61	27	32	93	87	39	230	188	27	33	3	7	34	27	9	2	38	16	10	37	7	4	27	10	2	32	4	6	29	5	12	30	6	7	26	8	4	41	7	9	32	6	2	30	8	31	8	7	34	10	8	36	1	11	30	3	5	36	7	0	31	10	6	34	5	6	46	9	1	31	5	36	3	8	30	7	8	31	4	5	26	7	51	10	8
36	43	28	35	49	47	19	21	125	80	30	213	173	35	27	7	9	31	26	5	6	31	7	10	22	6	8	25	5	5	37	8	6	30	5	6	35	8	6	25	4	3	21	7	5	35	9	4	40	4	38	6	3	25	4	6	31	9	5	36	12	2	38	3	5	27	5	5	40	5	6	39	14	6	30	8	34	9	3	43	13	5	30	12	9	35	2	30	5	2
25	35	36	25	61	44	32	31	87	72	35	188	163	33	36	7	9	27	29	2	5	40	10	9	38	4	4	36	2	9	40	6	11	30	12	5	41	7	7	27	4	4	39	9	3	37	2	7	31	4	28	7	8	35	8	10	33	11	6	44	5	4	24	0	2	27	6	10	32	6	7	30	1	5	32	11	33	8	11	32	8	11	42	5	4	33	10	31	8	4
34	28	21	32	47	40	21	28	80	67	42	173	144	27	24	9	8	26	31	6	6	27	10	2	20	8	2	29	5	5	17	6	4	40	6	13	27	6	3	25	3	5	28	5	2	32	4	4	42	7	28	3	8	34	6	6	30	5	7	33	2	10	25	5	3	16	5	5	21	6	8	27	6	8	40	8	38	3	6	48	5	6	29	9	3	22	8	42	2	6
34	36	28	27	44	37	31	32	72	76	32	163	161	36	25	9	5	29	29	5	3	34	9	7	30	4	11	36	9	9	21	11	3	27	5	10	32	7	9	32	4	8	42	3	8	29	7	7	31	4	26	8	8	32	10	8	45	6	7	29	4	10	28	2	7	46	10	8	33	7	5	32	5	5	34	5	29	11	10	29	11	9	28	4	7	29	8	38	4	4
39	21	24	34	40	35	28	27	67	56	30	144	113	24	27	8	12	31	30	6	3	27	2	8	29	2	7	32	5	7	26	4	7	29	13	5	24	3	6	22	5	6	32	2	5	37	4	8	32	7	38	8	3	32	6	9	28	7	5	28	10	5	35	3	7	31	5	8	32	8	7	36	8	8	29	1	28	6	6	38	6	7	33	3	11	30	5	42	6	3
22	28	21	20	37	34	32	25	76	65	41	161	116	25	28	5	45	29	28	3	7	39	7	8	35	11	5	33	9	4	38	3	5	23	10	2	31	9	9	49	8	3	39	8	2	24	7	5	27	7	32	8	5	24	8	6	22	7	8	35	10	9	29	7	4	26	8	4	35	5	4	32	5	12	38	4	24	10	6	33	9	5	32	7	10	35	8	28	4	5
30	24	25	23	35	44	27	29	56	49	28	113	118	27	33	12	265	30	34	3	4	37	8	10	30	7	8	33	7	4	37	7	4	35	5	8	34	6	1	19	6	7	27	5	3	26	8	8	40	7	26	3	9	30	9	7	30	5	7	33	5	7	25	7	11	31	8	11	31	7	9	26	8	7	26	11	26	6	8	38	7	4	37	11	8	34	6	30	3	7
31	21	23	34	34	41	25	33	65	52	39	116	103	28	22	45	210	28	26	7	6	22	8	3	30	5	5	31	4	8	27	5	5	24	2	7	30	9	4	49	3	5	25	2	9	16	5	6	32	7	25	5	5	33	6	3	39	8	3	33	9	3	40	4	7	27	4	10	24	4	11	38	12	7	36	3	30	6	6	28	5	6	20	10	7	36	6	23	5	9
30	25	25	25	44	33	29	29	49	56	26	118	95	33	26	265	223	34	26	4	13	29	10	9	29	8	5	31	4	6	31	4	6	38	8	7	27	1	6	40	7	3	35	3	8	28	8	6	26	8	31	9	9	35	7	7	34	7	4	29	7	5	27	11	13	28	11	12	42	9	7	25	7	6	32	9	26	8	2	34	4	7	28	8	6	29	5	29	7	10
22	23	31	30	41	29	33	35	52	51	32	103	78	22	26	210	191	26	28	6	9	35	3	2	31	5	4	30	8	7	29	5	5	30	7	4	28	4	7	34	5	7	32	9	9	35	6	9	27	3	33	5	12	24	3	2	27	3	6	25	3	5	23	7	6	20	10	7	32	11	8	25	7	6	20	7	33	6	10	33	6	7	25	7	11	27	6	31	9	8
33	25	28	46	33	22	29	32	56	49	31	95	83	26	26	223	165	26	34	13	9	32	9	8	32	5	8	24	6	7	25	6	11	30	7	8	31	6	5	30	3	5	28	8	8	31	6	7	23	6	29	9	7	39	7	8	30	4	8	34	5	9	26	13	9	28	12	3	32	7	8	24	6	8	35	8	30	2	5	30	7	8	35	6	8	24	7	29	10	5
36	31	32	31	29	33	35	18	51	38	23	78	87	26	43	191	166	28	27	9	4	32	2	6	25	4	8	43	7	7	30	5	7	34	4	7	31	7	4	28	7	6	25	9	8	28	9	7	37	2	30	12	3	33	2	5	24	6	10	36	5	6	26	6	11	37	7	5	36	8	7	40	6	11	25	5	28	10	5	23	7	7	32	11	12	29	9	33	8	4
28	28	16	32	22	38	32	31	49	42	27	83	69	26	22	165	158	34	30	9	5	21	8	9	31	8	4	23	7	7	24	11	3	32	8	6	29	5	8	28	5	4	27	8	9	31	7	10	28	2	31	7	4	17	8	7	30	8	4	30	9	6	25	9	6	28	3	6	34	8	5	29	8	5	28	10	37	5	6	30	8	9	36	8	9	34	8	26	5	2
20	32	30	29	33	26	18	26	38	26	31	87	81	43	30	166	140	27	29	4	10	32	6	6	31	8	6	26	7	4	34	7	2	18	7	6	27	4	5	24	6	7	33	8	5	19	7	8	34	4	38	3	5	24	5	3	21	10	8	25	6	4	31	11	8	35	5	7	25	7	8	28	11	7	42	8	24	5	8	24	7	7	25	12	5	33	4	21	4	6
22	16	24	27	38	37	31	23	42	40	22	69	65	22	28	158	115	30	27	5	5	25	9	5	34	4	6	32	7	4	27	3	7	22	6	10	28	8	3	30	4	9	19	9	10	31	10	5	30	7	24	4	6	30	7	9	30	4	5	25	6	9	32	6	10	33	6	9	27	5	5	24	5	7	33	5	28	6	4	30	9	5	34	9	8	26	6	27	2	7
31	30	30	23	26	36	26	36	26	37	30	81	72	30	32	140	112	29	26	10	47	33	6	8	28	6	2	22	4	9	30	2	4	31	6	5	27	5	9	33	7	8	27	5	8	32	8	7	30	7	32	5	7	28	3	9	38	8	5	31	4	5	27	8	11	35	7	6	31	8	10	28	7	11	32	7	33	8	10	30	7	4	23	5	8	25	6	26	6	8
29	24	22	28	37	28	23	28	40	44	33	65	56	28	34	115	84	27	20	5	252	28	5	2	41	6	4	30	4	8	25	7	7	30	10	6	17	3	6	24	9	11	27	10	2	22	5	12	30	8	27	6	10	30	9	5	26	5	5	26	9	8	28	10	9	34	9	7	25	5	6	39	7	8	26	3	30	4	5	30	5	6	39	8	6	31	4	31	7	6
29	30	23	28	36	24	36	29	37	37	26	72	66	32	27	112	79	26	24	47	207	32	8	15	30	2	7	20	9	9	31	4	3	33	5	3	27	9	6	18	8	4	28	8	8	27	7	7	24	5	32	7	5	32	9	6	17	5	3	27	5	7	27	11	4	26	6	5	34	10	7	29	11	2	27	11	29	10	3	30	4	8	35	8	6	20	8	31	8	7
28	22	18	31	28	27	28	28	44	33	25	56	50	34	28	84	99	20	31	252	199	30	2	9	43	4	5	33	8	8	28	7	7	29	6	4	23	6	4	22	11	9	25	2	8	30	12	6	26	1	25	10	9	27	5	6	28	5	10	26	8	5	23	9	9	26	7	10	24	6	2	31	8	6	31	4	37	5	5	29	6	5	34	6	8	34	9	18	6	6
36	23	28	26	24	15	29	24	37	31	29	66	49	27	30	79	102	24	22	207	194	26	15	9	30	7	3	25	9	6	30	3	3	26	3	9	26	6	6	31	4	7	24	8	9	14	7	7	34	6	24	5	8	29	6	6	19	3	4	25	7	4	17	4	8	36	5	8	33	7	6	27	2	5	16	13	26	3	13	45	8	11	27	6	7	28	9	34	7	8
33	18	23	27	27	29	28	13	33	39	29	50	65	28	25	99	86	31	32	199	171	24	9	8	30	5	0	21	8	6	31	7	12	31	4	9	20	4	5	31	9	3	31	8	2	35	6	10	22	9	24	9	6	34	6	8	27	10	6	36	5	6	38	9	10	32	10	9	32	2	6	31	6	2	19	3	30	5	6	28	5	4	30	8	9	30	4	34	6	5
24	28	27	30	15	25	24	24	31	35	21	49	49	30	28	102	83	22	31	194	138	32	9	2	28	3	3	28	6	13	27	3	10	29	9	7	27	6	4	27	7	11	21	9	3	33	7	8	22	9	36	8	6	16	6	9	28	4	10	27	4	7	34	8	3	29	8	10	21	6	10	24	5	2	27	4	19	13	4	32	11	5	22	7	5	25	5	30	8	11
18	23	40	33	29	30	13	30	39	23	28	65	39	25	26	86	60	32	32	171	141	31	8	4	27	0	6	33	6	10	20	12	2	30	9	4	32	5	3	31	3	6	30	2	5	23	10	8	20	7	27	6	3	32	8	9	26	6	3	17	6	8	28	10	10	27	9	4	24	6	6	17	2	6	30	5	33	6	5	24	4	5	28	9	7	27	12	28	5	6
31	27	20	20	25	24	24	36	35	23	29	49	53	28	27	83	67	31	25	138	111	25	2	9	31	3	5	25	13	5	32	10	4	31	7	5	23	4	3	29	11	2	29	3	8	30	8	7	30	3	27	6	4	23	9	4	28	10	3	28	7	5	25	3	8	29	10	9	34	10	6	23	2	5	29	6	33	4	3	34	5	11	20	5	4	30	6	28	11	5
25	40	23	36	30	31	30	24	23	29	27	39	35	26	26	60	64	32	23	141	127	27	4	2	30	6	5	27	10	6	39	2	14	31	4	10	29	3	8	22	6	3	35	5	5	31	8	11	24	9	40	3	3	28	9	6	32	3	9	27	8	9	34	10	7	30	4	4	31	6	7	33	6	4	25	11	31	5	3	27	5	8	37	7	7	25	6	24	6	9
33	20	22	23	24	21	36	25	23	19	27	53	40	27	33	67	66	25	36	111	124	32	9	46	32	5	3	21	5	10	26	4	5	33	5	3	28	3	7	22	2	6	32	8	10	30	7	1	31	6	30	4	4	36	4	9	20	3	5	29	5	7	45	8	11	30	9	4	31	6	9	24	5	9	28	7	23	3	7	31	11	6	35	4	9	26	13	30	5	6
27	23	23	32	31	32	24	20	29	38	30	35	32	26	33	64	48	23	23	127	98	39	2	244	35	5	6	29	6	6	28	14	3	31	10	4	43	8	6	33	3	5	25	5	7	29	11	4	38	7	26	3	3	35	6	5	25	9	8	37	9	6	22	7	4	33	4	11	33	7	6	24	4	11	29	7	34	3	8	40	8	4	25	7	6	27	4	22	9	1
22	22	27	34	21	26	25	23	19	31	26	40	32	33	28	66	49	36	39	124	89	19	46	188	24	3	8	26	10	9	29	5	5	28	3	9	24	7	6	38	6	5	27	10	2	18	1	10	43	6	40	4	12	24	9	8	29	5	7	25	7	5	34	11	2	37	4	2	37	9	1	26	9	8	24	6	26	7	9	33	6	5	27	9	4	35	3	29	6	11
33	23	19	32	32	22	20	34	38	31	33	32	32	33	25	48	46	23	26	98	84	29	244	201	17	6	9	29	6	5	28	3	8	28	4	2	38	6	3	23	5	3	31	7	7	34	4	4	28	7	25	3	10	27	5	7	33	8	12	29	6	7	22	4	7	29	11	4	27	6	4	38	11	3	27	8	23	8	5	19	4	10	33	6	4	20	7	30	1	4
33	27	19	29	26	16	23	21	31	23	35	32	32	28	34	49	55	39	26	89	100	32	188	170	27	8	4	21	9	4	24	5	1	22	9	9	32	6	8	24	5	13	35	2	6	37	10	6	30	4	31	12	6	33	8	8	24	7	4	26	5	8	27	2	7	28	2	6	33	1	6	22	8	8	36	7	32	9	8	26	5	6	20	4	3	33	10	34	11	9
31	19	17	33	22	23	34	39	31	29	23	32	31	25	20	46	54	26	33	84	69	16	201	169	25	9	5	35	5	7	33	8	7	30	2	11	33	3	7	30	3	4	32	7	8	19	4	6	37	4	33	10	6	28	7	1	33	12	9	18	7	4	25	7	9	37	4	4	23	4	9	27	3	4	30	3	27	5	5	29	10	9	37	4	2	29	3	30	4	3
39	19	21	26	16	11	21	34	23	20	26	32	24	34	36	55	35	26	23	100	68	24	170	130	30	4	7	26	4	5	29	1	4	29	9	10	19	8	7	19	13	9	41	6	11	21	6	6	32	8	36	6	12	36	8	5	36	4	12	24	8	3	25	7	7	25	6	7	18	6	6	31	8	4	39	1	19	8	7	29	6	5	25	3	5	23	6	24	9	10
23	17	18	23	23	27	39	19	29	23	14	31	34	20	28	54	33	33	22	69	68	27	169	144	23	5	8	30	7	4	26	7	8	32	11	10	25	7	9	29	4	13	22	8	6	17	6	6	33	7	25	6	6	28	1	5	27	9	8	25	4	5	35	9	6	42	4	5	25	9	3	34	4	5	32	12	27	5	10	26	9	5	29	2	7	24	11	27	3	8
32	21	32	29	11	30	34	27	20	26	39	24	37	36	28	35	44	23	28	68	71	31	130	138	24	7	7	31	5	13	31	4	6	31	10	4	20	7	7	22	9	5	27	11	7	21	6	8	38	4	27	12	7	30	5	7	30	12	5	32	3	10	26	7	3	28	7	9	27	6	5	21	4	5	23	9	34	7	10	23	5	5	32	5	7	23	4	31	10	5
33	18	29	24	27	23	19	24	23	33	33	34	26	28	31	33	37	22	21	68	59	32	144	109	26	8	9	28	4	5	27	8	6	32	10	6	23	9	2	22	13	5	24	6	6	44	6	8	39	3	26	6	7	24	5	7	26	8	8	32	5	11	28	6	7	36	5	5	39	3	11	30	5	11	25	5	27	10	4	24	5	6	27	7	7	29	4	30	8	10
26	32	24	23	30	15	27	29	26	28	31	37	20	28	28	44	43	28	33	71	58	21	138	107	31	7	39	33	13	11	27	6	5	27	4	6	25	7	4	27	5	4	28	7	7	37	8	8	34	4	33	7	10	25	7	4	28	5	7	25	10	9	24	3	4	30	9	10	29	5	5	24	5	3	27	5	34	10	5	24	5	1	24	7	5	32	5	38	5	6
30	29	20	34	23	26	24	31	33	15	34	26	27	31	28	37	31	21	35	59	50	35	109	113	27	9	226	22	5	3	23	6	4	34	6	5	24	2	7	34	5	4	17	6	8	40	8	11	27	3	29	7	3	19	7	5	30	8	10	22	11	8	36	7	8	33	5	7	28	11	6	26	11	10	32	9	33	4	5	31	6	6	33	7	12	22	8	32	10	5
31	24	25	30	15	30	29	31	28	22	24	20	27	28	29	43	34	33	25	58	55	27	107	71	23	39	193	36	11	9	31	5	13	39	6	8	32	4	10	27	4	7	25	7	6	24	8	4	29	7	32	10	5	28	4	9	24	7	8	14	9	4	32	4	5	32	10	5	31	5	7	26	3	8	33	4	28	5	12	31	1	4	26	5	4	29	9	25	6	4
22	20	17	25	26	21	31	20	15	23	33	27	27	28	33	31	37	35	37	50	53	34	113	86	27	226	200	26	3	6	27	4	9	30	5	7	35	7	6	26	4	8	20	8	3	28	11	5	21	6	32	3	8	37	5	5	31	10	5	28	8	7	38	8	4	19	7	8	26	6	11	31	10	6	33	4	22	5	6	19	6	4	32	12	9	21	4	24	5	8
27	25	27	34	30	20	31	35	22	13	32	27	24	29	23	34	21	25	22	55	49	27	71	75	21	193	172	28	9	3	18	13	9	30	8	8	27	10	6	30	7	9	43	6	7	30	4	10	24	3	27	5	12	32	9	7	25	8	8	30	4	8	23	5	8	30	5	7	33	7	5	26	8	11	30	6	29	12	6	34	4	5	22	4	5	43	7	27	4	5
24	17	17	28	21	26	20	32	23	25	25	27	29	33	31	37	31	37	41	53	40	20	86	81	29	200	142	33	6	8	33	9	8	20	7	4	35	6	5	35	8	5	25	3	9	32	5	7	24	11	19	8	8	30	5	4	21	5	7	31	7	8	31	4	6	27	8	8	26	11	8	28	6	11	24	2	37	6	7	29	4	6	25	9	6	35	11	32	8	9
31	27	19	34	20	27	35	25	13	25	31	24	30	23	22	21	50	22	21	49	38	30	75	76	31	172	154	25	3	8	20	9	5	25	8	2	34	6	5	23	9	3	18	7	6	27	10	7	22	4	22	12	7	22	7	6	28	8	6	32	8	6	30	8	3	27	7	6	23	5	9	25	11	6	36	4	30	6	3	23	5	6	35	5	8	31	11	19	5	0
26	17	20	35	26	19	32	31	25	23	18	29	26	31	36	31	18	41	35	40	33	27	81	74	27	142	126	24	8	8	24	8	9	28	4	9	34	5	7	29	5	5	28	9	5	36	7	10	25	8	35	8	4	25	4	10	26	7	7	28	8	4	31	6	8	24	8	6	20	8	8	24	11	8	23	9	37	7	10	31	6	4	24	6	4	29	5	23	9	11
18	19	22	37	27	18	25	29	25	32	21	30	31	22	18	50	22	21	29	38	28	24	76	68	31	154	116	29	8	10	21	5	8	27	2	8	20	5	10	33	3	10	25	6	6	34	7	8	24	7	30	7	8	19	6	5	29	6	5	29	6	6	38	3	6	23	6	6	30	9	4	27	6	9	23	10	26	3	6	26	6	8	32	8	4	25	5	34	0	5
20	20	38	24	19	23	31	28	23	16	31	26	16	36	27	18	36	35	24	33	31	28	74	59	29	126	115	23	8	8	26	9	3	32	9	6	21	7	3	24	5	2	24	5	6	25	10	8	30	5	20	4	4	34	10	5	22	7	6	32	4	4	25	8	10	31	6	6	35	8	6	32	8	4	36	8	27	10	4	18	4	6	28	4	10	20	4	31	11	4
25	22	21	37	18	29	29	36	32	23	28	31	21	18	29	22	29	29	25	28	22	44	68	54	28	116	90	31	10	37	30	8	3	19	8	9	23	10	4	39	10	7	37	6	3	21	8	8	32	6	25	8	8	30	5	5	20	5	8	29	6	7	23	6	4	33	6	8	23	4	6	25	9	5	22	6	29	6	4	42	8	4	23	4	4	33	3	25	5	7
25	38	23	33	23	17	28	29	16	25	31	16	18	27	29	36	36	24	31	31	32	29	59	61	22	115	100	24	8	245	37	3	4	33	6	8	33	3	6	39	2	3	30	6	5	27	8	5	30	8	27	4	6	27	5	9	25	6	4	27	4	9	26	10	5	24	6	8	30	6	6	31	4	9	35	5	24	4	14	15	6	4	27	10	8	24	3	30	4	4
24	21	29	21	29	29	36	31	23	23	31	21	24	29	26	29	33	25	27	22	40	24	54	58	33	90	83	29	37	207	17	3	2	26	9	1	33	4	7	39	7	8	29	3	9	31	8	10	31	5	28	8	9	29	5	7	26	8	8	32	7	11	27	4	6	28	8	5	22	6	8	38	5	8	20	6	27	4	6	25	4	10	30	4	5	27	10	30	7	3
28	23	29	24	17	20	29	24	25	32	34	18	21	29	26	36	24	31	20	32	40	24	61	27	31	100	73	25	245	192	29	4	7	33	8	8	30	6	5	28	3	6	28	5	6	23	5	3	28	6	26	6	7	31	9	4	36	4	11	35	9	8	25	5	7	19	8	5	23	6	6	22	9	7	28	6	32	14	6	31	4	2	41	8	5	36	9	21	4	4
30	29	24	36	29	18	31	26	23	29	29	24	25	26	20	33	39	27	25	40	34	33	58	53	21	83	77	26	207	171	26	2	5	28	1	5	30	7	2	28	8	3	30	9	7	23	10	6	29	9	22	9	9	26	7	9	33	8	7	26	11	2	29	6	5	26	5	5	22	8	8	35	8	6	23	9	31	6	7	15	10	9	18	5	3	18	4	22	3	7
18	29	29	33	20	14	24	26	32	22	25	21	31	26	24	24	21	20	29	40	35	32	27	40	17	73	79	29	192	176	31	7	7	24	8	3	28	5	4	19	6	6	33	6	6	28	3	11	24	2	24	7	11	31	4	6	27	11	5	28	8	7	20	7	7	30	5	7	32	6	2	33	7	7	23	7	23	6	8	32	2	14	30	5	9	32	11	28	4	4
22	24	22	33	18	21	26	17	29	22	31	25	32	20	31	39	27	25	17	34	29	29	53	43	20	77	59	19	171	142	25	5	3	28	5	3	24	2	4	21	3	8	23	7	6	29	6	4	25	5	33	9	14	26	9	8	19	7	10	19	2	4	27	5	4	40	5	5	24	8	5	31	6	4	26	6	36	7	7	25	9	10	24	3	6	26	6	25	7	8
34	29	21	29	14	25	26	20	22	20	29	31	26	24	23	21	30	29	24	35	22	28	40	46	27	79	77	33	176	142	29	7	4	23	3	8	31	4	9	33	6	8	30	6	7	24	11	10	30	7	13	11	4	14	6	3	16	5	8	29	7	9	28	7	6	26	7	12	32	2	6	26	7	6	28	6	23	8	6	21	14	6	28	9	6	30	4	30	4	8
35	22	22	33	21	19	17	23	22	22	32	32	26	31	33	27	25	17	30	29	29	31	43	45	25	59	52	27	142	134	22	3	7	26	3	8	31	4	10	23	8	4	18	6	6	26	4	8	29	2	38	14	8	25	8	3	21	10	8	28	4	6	22	4	9	31	5	4	23	5	6	30	4	7	21	4	27	7	8	28	10	7	25	6	7	29	9	17	8	4
24	21	22	35	25	19	20	35	20	25	30	26	29	23	23	30	19	24	26	22	22	22	46	33	35	77	54	41	142	104	22	4	7	27	8	3	20	9	2	32	8	7	32	7	10	29	10	0	30	11	27	4	8	24	3	10	18	8	5	28	9	7	30	6	8	24	12	7	28	6	10	32	6	5	19	7	38	6	5	28	6	5	22	6	5	25	5	29	8	9
18	22	23	34	19	29	23	23	22	21	22	26	26	33	28	25	23	30	39	29	32	35	45	32	24	52	61	28	134	105	30	7	40	21	8	8	22	10	9	16	4	6	37	6	6	25	8	9	26	7	28	8	10	22	3	4	27	8	4	24	6	6	18	9	3	26	4	3	19	6	4	25	7	10	27	9	26	8	5	25	7	3	35	7	7	26	9	30	4	8
22	22	32	25	19	18	35	27	25	34	29	29	26	23	31	19	23	26	25	22	28	24	33	36	33	54	64	31	104	82	21	7	221	22	3	5	20	2	4	33	7	9	25	10	6	25	0	10	30	8	30	8	5	21	10	8	31	5	5	21	7	3	26	8	8	21	7	10	33	10	6	20	5	4	29	10	29	5	7	24	5	10	26	5	9	39	10	29	9	9
32	23	26	24	29	14	23	25	21	26	22	26	24	28	25	23	24	39	24	32	20	26	32	15	29	61	50	34	105	103	30	40	188	25	8	7	34	9	9	28	6	6	28	6	3	30	9	6	31	14	28	10	8	24	4	4	28	4	7	20	6	5	34	3	3	34	3	5	24	4	9	27	10	4	27	8	30	5	7	38	3	7	23	7	7	20	9	31	8	12
40	32	21	34	18	16	27	30	34	22	26	26	19	31	28	23	20	25	17	28	19	29	36	34	22	64	43	26	82	79	27	221	166	23	5	1	27	4	7	27	9	5	33	6	8	25	10	9	24	5	29	5	7	26	8	7	16	5	7	25	3	5	27	8	10	26	10	9	25	6	5	33	4	4	28	6	23	7	8	29	10	3	32	9	6	28	7	22	9	9
22	26	23	28	14	19	25	25	26	23	32	24	21	25	23	24	18	24	30	20	23	35	15	37	26	50	43	24	103	83	29	188	156	27	7	5	28	9	7	37	6	7	29	3	13	29	6	11	17	5	28	8	3	29	4	6	25	7	5	32	5	6	36	3	7	25	5	8	30	9	5	24	4	4	26	10	23	7	4	30	7	6	27	7	4	26	4	27	12	10
36	21	20	27	16	22	30	32	22	23	26	19	13	28	25	20	23	17	22	19	24	33	34	37	23	43	38	27	79	79	23	166	137	32	1	4	38	7	4	29	5	5	23	8	8	18	9	7	23	5	27	7	6	34	7	8	33	7	8	27	5	6	30	10	3	27	9	5	24	5	6	38	4	7	24	9	22	8	6	31	3	9	27	6	5	25	6	32	9	5
31	23	25	34	19	25	25	35	23	27	30	21	21	23	35	18	17	30	34	23	24	28	37	35	23	43	36	27	83	70	26	156	130	30	5	8	18	7	3	20	7	10	21	13	6	18	11	4	30	7	37	3	7	25	6	4	26	5	4	31	6	8	23	7	12	33	8	2	22	5	5	27	4	4	23	6	33	4	8	23	6	5	24	4	8	33	3	18	10	10
27	20	22	33	22	24	32	23	23	22	25	13	17	25	28	23	19	22	34	24	26	24	37	25	27	38	34	22	79	67	32	137	128	30	4	7	31	4	8	28	5	7	24	8	5	27	7	7	19	4	27	6	8	24	8	3	22	8	8	27	6	6	26	3	2	24	5	4	23	6	6	20	7	3	28	6	25	6	8	32	9	4	31	5	5	26	7	21	5	1
23	25	19	31	25	17	35	25	27	17	19	21	19	35	32	17	20	34	34	24	24	24	35	35	27	36	40	29	70	57	32	130	114	27	8	9	29	3	11	35	10	2	33	6	6	30	4	9	28	0	37	7	8	28	4	6	25	4	7	33	8	8	30	12	7	24	2	8	25	5	5	27	4	7	22	6	28	8	4	29	5	10	27	8	11	27	4	17	10	7
21	22	33	23	24	18	23	26	22	15	29	17	21	28	23	19	23	34	29	26	18	27	25	33	19	34	24	31	67	64	21	128	107	28	7	4	27	8	2	27	7	7	20	5	6	32	7	4	31	8	20	8	5	25	3	4	25	8	7	18	6	3	34	2	2	27	4	7	23	6	6	39	3	5	21	10	35	8	6	26	4	7	23	5	7	25	7	21	1	10
24	19	26	31	17	20	25	28	17	17	16	19	25	32	23	20	24	34	15	24	26	24	35	30	18	40	38	35	57	52	21	114	94	16	9	46	28	11	7	23	2	7	25	6	10	26	9	12	27	9	32	8	6	29	6	4	24	7	7	30	8	8	31	7	7	28	8	7	30	5	6	33	7	3	22	2	25	4	1	29	10	7	29	11	6	29	11	25	7	5
34	33	20	24	18	13	26	21	15	29	29	21	23	23	27	23	26	29	22	18	20	22	33	29	23	24	28	24	64	61	30	107	99	25	4	239	34	2	8	31	7	7	23	6	4	14	4	6	15	7	29	5	7	24	4	7	33	7	10	23	3	6	28	2	6	27	7	2	25	6	11	19	5	6	35	7	30	6	5	31	7	6	21	7	7	33	6	28	10	5
27	26	31	28	20	24	28	21	17	18	25	25	25	23	21	24	29	15	19	26	19	27	30	21	23	38	32	22	52	54	41	94	82	20	46	184	35	7	9	29	7	3	26	10	11	21	12	4	24	6	30	6	5	27	4	8	23	7	8	22	8	9	25	7	6	34	7	7	31	6	6	24	3	7	21	4	21	1	6	29	7	8	32	6	2	23	6	29	5	6
37	20	15	23	13	24	21	26	29	15	24	23	25	27	20	26	26	22	28	20	19	22	29	28	31	28	38	26	61	55	28	99	90	25	239	163	19	8	6	22	7	2	25	4	5	18	6	6	23	8	36	7	7	22	7	8	28	10	2	27	6	3	40	6	5	29	2	5	27	11	5	39	6	8	26	6	27	5	3	25	6	9	21	7	10	25	10	19	5	8
27	31	21	32	24	30	21	30	18	13	26	25	17	21	16	29	22	19	22	19	19	25	21	24	26	32	25	21	54	53	15	82	85	28	184	164	27	9	5	20	3	5	29	11	10	26	4	7	20	5	21	5	2	31	8	10	26	8	6	30	9	7	24	6	5	24	7	10	20	6	8	24	7	3	39	7	25	6	3	25	8	3	29	2	5	24	12	33	6	6
26	15	18	19	24	17	26	22	15	22	22	25	23	20	31	26	30	28	20	19	17	28	28	29	27	38	30	32	55	45	25	90	73	34	163	156	31	6	2	27	2	3	26	5	3	38	6	4	20	6	32	7	3	18	8	4	23	2	6	24	3	8	27	5	11	48	5	4	34	5	11	25	8	12	26	3	30	3	7	31	9	6	29	10	9	20	7	24	8	6
23	21	24	21	30	28	30	17	13	21	24	17	21	16	24	22	24	22	34	19	26	28	24	27	19	25	36	28	53	48	21	85	66	30	164	141	25	5	5	16	5	4	28	10	7	34	7	6	32	6	21	2	2	26	10	6	35	6	5	37	7	11	24	5	5	28	10	3	32	8	12	22	3	12	27	6	27	3	9	25	3	6	16	5	7	32	9	32	6	4
21	18	22	16	17	22	22	29	22	21	31	23	24	31	22	30	19	20	28	17	22	27	29	23	28	30	32	34	45	41	20	73	62	38	156	125	34	2	8	26	3	4	28	3	5	20	4	6	25	5	26	3	7	22	4	7	29	6	9	34	8	3	28	11	7	20	4	4	21	11	2	26	12	8	35	6	23	7	11	39	6	7	33	9	2	28	5	34	6	6
