#Saved Data from the class pulsed_measurement_logic on 18.11.2022 at 10h41m54s.
#
#Parameters:
#===========
#
#bin width (s): 5.0000000000000001e-09
#record length (s): 1.0025000000000000e-05
#gated counting: False
#Number of laser pulses: 2
#alternating: False
#Controlled variable: [2e-06]
#
#Data:
#=====
#Signal(counts)
3
6
2
2
5
7
5
3
6
7
4
3
3
3
3
5
7
6
3
6
3
3
7
4
3
6
8
6
3
2
2
3
2
8
2
2
3
4
5
4
0
2
3
4
2
8
1
6
20
27
39
47
40
41
36
42
46
46
45
41
58
41
53
57
47
46
51
45
48
53
51
54
41
45
56
39
45
50
50
55
46
42
42
42
37
39
37
38
66
50
50
55
37
48
40
31
37
53
41
49
45
42
33
46
45
47
51
48
52
39
32
50
44
39
47
41
42
38
44
43
35
41
41
45
49
32
46
37
47
48
50
35
42
37
39
42
50
36
38
42
29
45
30
40
34
40
45
31
35
37
38
50
45
52
48
35
47
36
40
39
39
37
43
33
33
43
40
42
35
25
41
46
37
44
31
34
43
48
42
43
42
36
30
34
39
48
36
41
29
36
46
49
38
38
37
34
38
38
42
40
42
23
41
41
35
41
36
40
45
33
40
43
41
34
53
42
41
27
34
44
37
47
36
43
29
40
45
22
37
31
30
34
34
35
48
41
35
28
36
29
38
40
48
50
35
32
24
35
36
50
47
50
33
33
42
28
39
33
33
39
43
23
34
36
34
49
41
36
40
42
37
48
34
36
31
31
31
37
26
37
38
39
35
38
29
40
38
39
36
33
31
38
45
30
36
33
26
40
29
33
31
27
31
35
36
25
47
37
51
24
33
35
52
44
36
34
35
47
26
33
33
32
33
34
32
32
42
29
31
34
31
34
46
31
33
34
38
32
29
44
40
36
42
36
34
37
46
29
43
28
31
24
34
37
42
42
31
33
31
48
32
35
39
39
37
47
29
27
37
37
53
32
32
38
39
31
35
37
41
30
29
45
36
32
36
37
31
32
21
35
40
22
25
30
35
37
33
36
41
23
31
40
55
33
32
28
29
40
32
35
43
27
26
33
45
33
38
33
28
25
39
42
30
34
40
29
35
30
22
30
30
42
33
31
43
36
38
33
41
31
36
43
35
44
35
31
41
38
43
26
18
12
3
12
5
5
8
6
4
4
2
6
2
3
3
3
9
3
5
3
6
4
5
3
5
6
7
6
4
6
3
6
4
3
5
6
4
2
5
3
5
6
10
2
3
3
6
10
8
5
5
5
2
2
3
4
4
7
5
6
4
4
6
7
4
10
7
7
2
2
6
8
1
8
2
3
3
6
7
1
5
2
6
4
6
5
8
4
5
6
1
6
8
7
5
1
4
5
7
7
6
2
3
5
6
4
4
3
2
9
6
5
6
4
4
7
4
3
2
1
8
4
6
5
4
3
2
3
2
4
2
5
4
4
5
6
1
5
5
5
3
1
1
7
7
3
2
5
7
8
7
3
6
5
2
1
3
5
4
4
2
4
7
5
1
2
6
6
6
7
1
5
6
4
2
6
1
4
5
2
6
5
1
4
7
5
1
4
6
2
3
4
6
3
5
5
6
4
2
8
3
2
4
5
7
2
1
4
2
6
4
6
1
6
0
4
0
4
3
6
3
6
1
3
3
4
8
1
7
4
7
3
3
3
3
0
2
2
6
3
4
6
6
2
5
5
6
6
4
3
8
3
6
6
4
1
4
2
5
3
7
7
4
4
3
3
6
6
5
8
3
8
4
4
4
5
3
2
3
4
7
3
4
2
4
2
6
8
7
2
3
5
9
2
3
3
5
2
4
4
5
4
5
6
5
5
9
2
5
3
2
3
2
3
3
5
2
3
5
4
2
5
2
8
5
1
5
7
2
7
3
4
8
2
7
3
2
4
3
2
8
5
1
2
7
7
2
4
9
5
3
1
6
3
6
6
6
3
5
2
1
7
3
5
2
3
7
5
5
7
4
5
5
1
6
5
3
6
4
4
5
4
2
2
2
5
7
6
2
4
7
1
8
4
10
4
2
5
6
2
3
4
17
25
49
41
42
43
42
46
40
58
36
43
42
52
52
33
44
48
55
47
55
36
48
40
57
38
53
40
50
61
42
48
42
46
43
48
32
48
41
49
38
32
47
42
46
49
38
41
40
48
46
48
49
59
45
50
43
37
31
41
40
49
40
35
41
43
36
45
32
37
43
42
40
35
33
41
52
45
39
50
46
40
39
41
37
37
36
37
43
37
38
29
52
32
38
40
42
29
41
39
50
36
28
41
42
32
43
37
31
42
32
40
36
37
36
36
34
40
29
32
29
43
32
45
44
51
29
34
31
39
31
43
33
50
37
52
32
26
41
38
40
27
33
33
40
49
37
44
37
41
44
44
34
35
36
35
34
30
43
33
40
47
40
35
42
46
24
42
40
45
36
36
32
41
45
45
45
35
42
35
34
32
41
41
27
36
45
43
39
30
31
30
33
42
37
36
32
26
32
25
33
32
41
35
38
29
42
27
24
27
42
38
33
32
42
39
37
34
37
29
36
34
37
25
44
34
39
37
44
32
34
38
39
44
33
27
43
25
35
33
30
40
42
40
39
33
41
40
44
44
28
39
35
41
39
45
24
34
27
38
29
30
52
39
38
38
36
28
33
44
31
39
31
27
37
40
37
35
42
17
47
29
42
33
43
32
37
48
26
34
27
38
22
37
45
38
42
31
23
30
43
34
22
48
34
43
33
35
32
28
34
53
39
37
38
36
31
41
41
30
30
33
32
31
29
30
40
36
34
33
38
38
35
43
48
36
37
36
34
31
34
38
37
29
34
39
28
33
30
36
42
24
31
36
39
30
37
44
39
37
43
33
44
41
30
27
38
39
40
39
42
26
36
24
39
31
27
46
37
41
33
27
28
39
38
37
46
43
38
25
24
41
35
35
42
41
26
19
13
14
6
2
1
0
8
5
2
5
2
3
2
6
5
3
2
4
4
0
4
5
4
4
5
7
2
6
3
4
11
4
5
8
4
6
3
5
5
4
3
5
6
3
5
4
1
3
1
4
5
7
2
6
7
6
5
4
0
5
2
4
3
3
2
3
5
4
1
3
7
5
5
5
0
6
6
3
6
2
2
4
7
2
4
6
4
3
3
5
4
1
7
2
5
5
7
4
0
5
6
6
3
3
3
6
2
6
3
5
2
6
6
6
2
5
1
5
3
3
5
4
5
4
6
10
4
2
6
5
6
2
8
4
2
1
7
3
4
5
7
6
4
11
5
3
4
6
4
0
2
6
6
6
8
3
4
5
4
9
2
5
4
3
4
8
2
5
6
3
6
4
4
2
1
2
5
6
6
7
2
5
5
7
4
3
5
3
5
4
6
7
0
6
1
4
5
5
4
3
3
2
2
3
6
3
8
1
4
3
5
8
4
3
6
3
3
3
1
5
2
5
1
2
6
1
3
5
2
5
6
4
6
6
10
5
4
4
2
3
5
5
2
3
5
5
6
1
3
8
2
3
7
5
2
3
4
5
4
5
3
3
5
2
4
5
7
2
2
7
1
1
3
1
0
3
6
3
7
2
8
1
5
4
4
3
4
6
6
2
5
4
2
8
4
2
6
9
2
7
6
3
5
5
9
2
3
4
6
7
5
6
6
6
2
5
4
1
2
4
2
6
5
6
4
2
0
4
1
8
8
1
4
1
6
2
4
5
2
4
7
6
8
2
3
7
5
0
1
4
9
5
0
8
5
7
6
5
7
2
7
2
4
2
2
4
3
5
3
4
4
5
9
3
9
10
3
8
6
4
2
5
5
4
7
5
2
6
9
3
5
7
4
5
4
4
4
5
2
6
2
4
3
6
3
5
6
8
4
6
1
7
4
4
3
6
6
1
4
6
3
2
5
4
2
2
6
6
2
6
6
7
4
4
6
4
1
4
3
7
3
4
6
1
7
5
4
3
6
6
2
0
1
1
8
2
6
4
3
5
7
6
2
1
2
3
4
3
6
7
2
3
7
3
7
3
1
3
7
4
3
2
6
5
2
1
4
11
2
0
2
9
4
3
9
6
4
6
2
0
7
4
5
5
2
4
1
6
7
2
7
4
1
6
6
4
5
2
1
2
4
3
4
5
3
3
7
4
7
6
4
5
9
3
7
5
2
3
2
2
2
1
3
7
6
4
6
4
1
3
3
7
5
5
6
3
4
5
5
5
5
4
1
5
5
7
5
5
3
6
2
4
8
4
1
4
4
1
8
2
3
5
3
7
10
1
1
3
1
8
5
6
1
5
5
3
7
7
10
7
4
3
2
2
6
5
2
3
6
8
6
5
4
1
8
3
4
3
3
5
8
1
5
6
3
4
6
8
4
1
1
4
2
1
3
4
2
5
4
2
4
6
5
4
3
1
5
4
4
7
3
10
5
7
4
2
3
5
4
4
3
3
4
3
7
3
2
9
3
5
3
2
4
5
6
3
2
6
2
5
1
4
6
2
3
1
2
5
4
5
2
6
2
4
4
6
1
2
6
4
5
1
4
1
4
9
4
7
4
4
7
3
2
8
9
3
5
3
5
2
2
6
3
6
5
3
7
3
2
4
2
5
4
4
3
1
3
5
1
3
8
3
5
8
0
5
3
2
5
2
5
5
4
2
4
