#Saved Data from the class pulsed_measurement_logic on 18.11.2022 at 11h06m35s.
#
#Parameters:
#===========
#
#bin width (s): 1.0000000000000000e-08
#record length (s): 1.0030000000000001e-05
#gated counting: False
#Number of laser pulses: 2
#alternating: False
#Controlled variable: [2e-06]
#
#Data:
#=====
#Signal(counts)
0
0
0
0
1
0
0
0
0
0
1
0
0
0
1
0
0
1
0
0
1
0
1
2
48
71
67
60
51
50
65
52
41
42
41
35
34
25
26
29
29
29
27
23
14
24
20
15
10
17
24
17
13
24
18
17
10
14
19
14
17
14
10
16
19
14
12
9
17
21
11
18
15
8
8
17
9
16
18
12
12
17
15
12
14
13
9
16
10
15
9
13
12
14
10
12
12
12
9
15
10
16
14
15
9
5
14
8
6
13
13
10
7
10
9
12
13
10
9
15
13
15
20
12
12
11
12
9
4
11
13
16
7
15
10
17
12
12
10
14
15
9
4
11
8
16
16
17
12
9
8
16
17
12
14
8
17
16
15
14
19
16
14
11
9
15
10
10
12
11
10
10
10
16
14
13
11
11
11
16
13
6
1
9
11
12
13
11
9
11
14
11
15
15
14
13
11
10
8
15
12
12
9
14
9
12
7
11
19
17
14
16
10
21
13
11
12
10
9
11
11
6
15
8
8
5
2
1
2
0
0
1
0
1
1
0
0
0
2
1
0
1
2
1
0
1
1
0
0
2
2
0
1
0
0
0
1
0
3
0
0
1
0
1
0
1
1
1
0
0
3
0
0
0
0
0
2
1
0
1
0
1
0
0
1
0
1
2
1
0
0
0
1
0
1
1
0
2
0
0
0
2
2
0
1
0
0
0
0
0
1
0
0
0
0
0
0
0
0
0
1
0
0
0
0
2
0
0
0
1
0
1
2
1
1
0
0
0
0
1
0
0
0
0
1
0
0
0
2
1
1
0
1
0
0
1
0
0
1
1
0
1
0
1
0
0
0
0
1
0
0
0
1
2
1
0
1
1
0
0
0
0
1
0
0
1
2
1
0
2
0
1
0
0
0
0
0
0
0
1
0
0
0
0
1
0
0
0
0
0
1
0
1
1
2
1
1
0
1
0
0
0
0
1
0
3
48
65
61
62
56
55
45
41
44
38
34
38
27
29
28
22
26
18
17
25
24
15
10
14
17
10
20
21
17
17
19
13
12
14
23
13
20
17
16
14
13
10
7
13
8
12
5
14
4
11
10
16
12
8
9
9
9
12
13
9
14
14
8
11
13
14
12
14
14
17
11
12
12
9
15
16
6
13
14
10
13
13
6
17
12
17
11
13
14
13
11
16
16
14
11
15
6
12
13
9
10
9
17
12
12
9
13
7
10
14
16
10
11
11
7
13
13
13
12
17
18
13
10
13
15
17
14
6
10
5
8
8
7
21
15
15
11
14
14
10
15
17
15
13
6
16
15
14
13
12
11
19
12
6
19
16
15
7
9
9
10
17
14
13
15
12
10
11
14
15
11
14
9
12
13
10
11
13
16
10
7
19
10
15
14
8
12
13
15
10
14
18
9
8
19
16
16
12
4
1
1
1
1
0
2
0
2
0
4
1
1
0
0
0
0
0
2
0
1
1
1
0
0
1
0
0
0
1
0
0
1
0
0
1
0
1
0
1
0
0
3
1
0
1
2
1
1
1
0
1
0
0
1
0
1
0
1
0
0
0
1
0
0
2
0
1
0
0
0
1
3
1
0
1
0
1
0
0
0
0
4
0
1
0
1
0
0
1
0
1
0
0
0
0
2
1
1
1
0
1
1
1
0
0
1
1
0
0
0
1
0
0
1
0
0
1
2
0
0
0
0
0
0
0
0
0
0
1
0
0
0
2
0
0
0
0
0
0
0
0
1
0
0
0
0
1
0
1
1
1
1
1
0
2
1
2
1
0
0
1
2
1
0
0
0
0
1
0
0
1
1
0
1
1
0
0
1
1
0
0
1
2
0
2
0
0
0
0
2
0
1
0
0
0
0
0
0
1
0
1
1
0
0
0
0
3
2
0
2
2
0
1
0
0
1
1
1
0
1
3
0
0
1
0
2
2
0
0
0
1
1
0
1
0
0
1
0
0
1
0
0
3
0
2
0
1
0
1
0
0
0
1
1
1
2
1
0
1
1
1
1
0
0
1
1
0
3
1
3
1
2
0
0
0
1
1
0
1
2
0
0
0
0
0
1
0
1
0
3
0
1
0
0
1
0
1
0
0
0
1
1
0
2
0
1
0
0
0
0
2
1
1
2
2
0
1
0
0
0
0
0
0
0
0
0
0
1
0
0
1
1
0
0
1
1
1
0
0
0
0
0
1
0
0
1
1
1
0
1
1
0
0
0
0
1
0
0
1
0
1
1
0
0
1
1
1
0
0
0
1
0
0
0
0
0
0
0
