#Saved Data from the class pulsed_measurement_logic on 18.11.2022 at 11h12m44s.
#
#Parameters:
#===========
#
#bin width (s): 1.0000000000000000e-08
#record length (s): 1.0030000000000001e-05
#gated counting: False
#Number of laser pulses: 2
#alternating: False
#Controlled variable: [2e-06]
#
#Data:
#=====
#Signal(counts)
0
0
2
0
1
1
0
1
4
0
1
1
0
1
1
1
2
1
2
1
1
3
4
4
125
168
135
126
97
110
103
69
65
54
54
79
49
50
48
43
45
48
42
31
33
35
35
27
35
22
21
23
20
35
16
24
23
22
20
32
29
22
32
26
17
24
18
18
30
32
22
24
19
21
19
27
19
30
20
20
19
16
24
35
21
24
23
26
32
27
20
21
32
15
24
24
18
18
25
22
24
30
24
27
17
27
22
21
15
25
25
25
17
25
14
22
20
14
27
18
24
23
29
24
27
29
28
27
26
16
24
27
19
21
24
27
26
27
32
19
30
26
22
20
24
20
14
17
25
19
31
18
20
16
23
18
21
19
22
18
22
29
14
18
29
30
27
22
30
34
19
15
15
16
33
24
24
19
24
25
22
25
25
29
21
22
19
18
18
31
23
27
27
22
28
22
22
22
10
14
28
19
21
17
18
24
22
20
15
21
16
20
18
24
26
29
19
23
24
18
23
20
21
19
16
6
1
1
1
2
0
0
1
2
2
2
1
2
2
3
3
1
0
0
1
1
2
0
0
2
0
0
2
1
2
0
2
0
2
1
0
0
3
0
0
1
2
0
0
4
1
1
0
0
2
1
1
1
2
1
1
2
4
1
0
1
0
1
1
0
1
0
0
2
1
1
1
1
1
1
1
2
1
0
0
0
0
0
1
1
2
0
1
0
1
0
3
2
0
0
1
1
1
0
1
2
0
0
0
2
1
0
1
3
0
2
1
0
1
1
1
1
0
1
2
1
2
0
0
0
0
0
0
1
0
2
0
1
1
0
0
0
0
1
1
1
3
0
0
4
0
2
0
1
0
1
1
1
0
1
1
0
0
1
1
3
2
0
2
2
0
0
3
0
1
2
0
1
0
2
1
0
2
1
0
1
1
1
2
0
0
1
0
2
0
0
1
0
0
1
1
1
1
0
0
16
108
141
120
114
113
80
81
84
79
64
45
56
44
46
49
45
41
24
50
46
30
36
29
31
22
31
27
21
24
33
30
22
19
24
26
25
13
23
22
27
30
24
25
29
18
17
19
25
19
22
27
23
23
29
17
25
22
18
20
23
8
11
28
22
19
18
18
21
17
18
21
30
25
14
22
25
22
18
26
15
25
17
17
25
18
17
28
20
27
19
27
20
21
17
19
18
23
20
33
20
25
19
20
21
12
33
19
24
28
19
20
22
22
17
28
24
19
28
17
25
24
23
24
24
22
24
12
22
21
17
20
16
28
30
14
22
23
22
22
31
14
19
16
16
24
24
34
24
25
24
19
25
27
17
32
21
18
20
30
23
16
22
26
28
22
25
20
30
19
21
24
20
20
16
17
21
32
21
16
18
19
25
21
22
17
30
19
13
20
16
19
15
19
19
24
20
19
26
19
3
1
1
0
1
1
0
1
1
0
1
3
0
2
0
1
1
0
2
1
0
2
0
0
0
2
1
0
0
2
2
0
0
1
1
1
0
1
0
0
1
4
1
3
0
0
2
0
2
2
2
2
1
0
0
1
1
1
2
1
0
1
1
0
0
0
1
0
1
3
2
0
0
1
0
2
1
1
2
2
1
0
0
1
1
0
1
1
1
0
0
0
0
0
0
1
1
0
0
0
0
0
0
2
2
2
0
2
1
0
0
0
0
0
1
2
0
1
0
0
1
0
3
0
1
2
1
0
1
0
1
0
0
0
3
2
1
0
1
0
2
1
3
0
0
1
1
1
1
0
0
0
1
1
1
0
0
0
0
1
1
1
0
0
0
2
1
2
1
0
0
2
3
0
0
1
1
1
3
0
0
1
0
0
0
0
0
0
1
1
1
1
2
1
1
0
0
0
1
3
1
0
2
2
1
1
2
1
1
1
0
1
5
0
1
0
0
0
0
0
2
1
1
3
2
0
1
1
0
1
0
1
1
2
0
1
1
1
2
1
0
1
0
3
2
2
1
1
0
2
0
0
0
1
0
1
2
1
1
0
0
1
1
1
0
0
0
0
0
0
0
0
1
1
2
1
0
1
2
0
1
1
0
0
1
0
2
0
0
0
0
1
1
0
1
2
0
2
1
0
1
2
3
1
0
2
1
2
0
2
0
0
0
1
1
2
2
1
2
2
2
0
0
0
0
0
0
0
3
1
1
1
1
2
1
1
4
1
1
1
1
1
0
0
0
2
2
0
0
0
0
1
2
0
0
1
1
1
2
1
1
0
0
0
2
2
0
1
1
0
0
0
1
1
2
1
0
0
