#Saved Data from the class pulsed_measurement_logic on 18.11.2022 at 11h09m04s.
#
#Parameters:
#===========
#
#bin width (s): 1.0000000000000000e-08
#record length (s): 1.0030000000000001e-05
#gated counting: False
#Number of laser pulses: 2
#alternating: False
#Controlled variable: [2e-06]
#
#Data:
#=====
#Signal(counts)
2
2
2
3
0
0
2
1
0
2
1
1
0
1
0
3
2
0
1
1
1
2
1
7
67
138
125
121
118
125
94
79
91
89
91
73
100
73
69
71
72
68
69
58
66
52
41
60
56
51
61
51
48
47
47
38
54
47
37
45
39
38
35
40
38
42
31
36
37
28
33
44
32
37
30
30
35
34
31
24
44
41
41
34
34
26
39
27
31
26
30
26
34
25
30
20
31
37
33
24
18
36
42
31
34
35
37
31
37
31
30
26
25
30
33
36
30
33
33
34
35
25
29
35
27
34
39
35
29
40
34
35
32
26
37
19
36
35
24
36
35
23
37
30
26
30
27
36
29
32
32
29
36
23
30
31
28
37
33
21
35
33
24
27
30
35
27
30
37
31
26
32
34
33
40
22
37
35
32
32
41
30
36
28
31
38
26
32
25
23
34
48
45
27
46
34
27
36
30
43
35
30
38
30
36
34
34
36
33
38
36
35
29
25
19
22
36
23
27
32
25
41
33
44
39
12
0
1
2
4
2
3
1
1
3
4
1
1
3
2
0
2
2
2
1
3
1
3
1
2
2
2
1
1
1
0
0
0
1
2
1
0
4
1
1
1
2
2
1
1
2
0
0
2
1
4
2
1
0
1
3
3
0
4
0
1
3
1
1
1
1
1
0
0
2
0
0
2
2
2
0
2
1
1
1
3
1
3
4
6
5
1
0
2
3
0
1
0
1
1
0
0
2
0
1
0
3
1
1
0
0
4
1
0
1
2
1
2
4
0
1
1
0
1
2
1
1
1
0
0
2
1
3
0
1
1
1
0
0
1
1
0
2
2
2
0
0
3
1
0
1
0
3
0
1
2
0
0
2
4
0
0
0
3
0
0
3
2
3
0
1
2
0
5
0
2
3
0
3
1
1
2
1
2
0
0
2
1
3
1
1
0
3
4
1
2
0
0
1
0
2
2
0
1
0
7
61
105
113
119
104
96
90
103
100
88
85
105
60
82
63
87
87
68
62
59
58
74
60
61
43
46
55
39
40
44
37
44
35
50
43
35
39
43
54
55
41
41
35
35
44
54
35
38
28
50
48
32
27
35
32
35
33
38
29
27
29
37
43
31
30
22
30
31
30
22
26
40
41
31
32
32
33
36
30
34
20
35
27
43
36
35
21
23
38
43
33
26
38
41
34
37
28
39
31
26
30
27
37
24
29
21
34
36
28
28
32
37
32
33
43
35
25
29
34
37
33
23
25
28
45
25
37
24
27
31
34
40
28
30
23
44
39
33
24
34
34
28
39
26
30
32
22
32
20
34
35
29
30
32
28
27
44
30
38
22
28
36
32
31
37
31
31
32
21
33
32
31
34
30
37
32
31
28
38
34
37
36
22
36
37
32
26
32
37
30
40
29
31
39
23
30
47
31
18
2
1
2
0
2
2
0
1
2
0
3
1
3
1
4
1
0
2
0
1
1
0
0
0
2
1
2
0
3
5
2
5
2
3
3
0
0
1
2
2
1
1
3
4
0
1
0
1
1
0
1
1
0
0
0
2
1
2
2
1
1
1
0
3
0
1
2
2
2
1
0
2
1
1
1
3
0
3
0
1
2
1
0
2
2
2
2
0
1
4
1
3
1
1
0
1
3
2
1
0
0
1
2
2
1
2
2
1
1
2
1
1
0
2
2
4
0
1
2
1
2
2
0
1
1
4
1
2
1
1
1
1
0
0
1
1
2
1
2
0
1
0
6
0
3
0
1
1
2
1
2
1
2
0
0
2
2
1
1
1
2
2
6
1
2
1
0
1
2
1
0
1
3
0
1
4
1
1
1
1
0
2
2
1
2
0
1
1
3
3
1
2
0
0
1
2
1
3
1
1
2
3
1
2
1
0
2
2
1
0
0
1
2
1
1
1
1
0
3
3
0
1
2
2
1
2
2
2
1
2
0
1
1
2
1
1
3
1
0
1
2
2
1
1
3
2
0
0
1
0
2
1
0
1
1
0
2
0
0
4
2
1
1
0
2
1
1
0
2
1
1
1
1
0
1
1
2
0
3
0
1
1
2
0
0
1
2
2
0
2
3
1
1
1
2
3
1
3
1
2
3
1
0
2
1
1
0
1
1
0
3
2
2
2
3
1
2
2
1
0
0
1
0
1
2
0
3
1
0
0
2
0
1
2
2
3
1
0
6
1
0
0
2
1
2
1
2
2
0
2
4
1
0
0
0
1
0
0
1
3
3
0
0
2
2
2
1
1
3
3
0
1
2
1
4
1
2
3
