#Saved Data from the class pulsed_measurement_logic on 18.11.2022 at 16h53m27s.
#
#Parameters:
#===========
#
#bin width (s): 5.0000000000000001e-09
#record length (s): 8.6824999999999996e-05
#gated counting: False
#Number of laser pulses: 156
#alternating: False
#Controlled variable: [2e-08, 4e-08, 6.000000000000001e-08, 8e-08, 1e-07, 1.2e-07, 1.4e-07, 1.6e-07, 1.8e-07, 2e-07, 2.1999999999999998e-07, 2.4000000000000003e-07, 2.6000000000000005e-07, 2.8e-07, 3.0000000000000004e-07, 3.2e-07, 3.4000000000000003e-07, 3.6000000000000005e-07, 3.8e-07, 4.0000000000000003e-07, 4.2e-07, 4.4e-07, 4.6000000000000004e-07, 4.8e-07, 5.000000000000001e-07, 5.2e-07, 5.4e-07, 5.6e-07, 5.800000000000001e-07, 6.000000000000001e-07, 6.2e-07, 6.4e-07, 6.6e-07, 6.800000000000001e-07, 7.000000000000001e-07, 7.2e-07, 7.4e-07, 7.6e-07, 7.8e-07]
#
#Data:
#=====
#Signal(counts)
3
5
3
10
5
2
2
6
2
9
2
4
7
11
6
4
19
57
51
43
46
38
39
39
35
47
25
39
28
37
31
35
24
22
29
18
23
26
18
22
21
17
18
13
19
20
20
18
13
12
12
12
10
9
16
18
14
11
15
13
12
20
11
12
14
12
18
11
16
13
25
20
8
15
13
17
14
9
15
14
7
18
19
16
9
12
10
20
9
15
11
16
12
11
12
19
11
17
14
11
13
10
12
9
12
7
10
14
11
13
13
11
12
12
9
12
13
15
13
11
13
17
15
14
14
14
14
11
7
11
6
6
17
13
12
11
26
123
90
82
79
74
68
60
54
57
62
79
50
59
49
45
49
54
33
36
37
34
40
37
37
29
34
42
40
35
29
28
22
22
31
27
17
33
45
33
22
32
21
26
26
25
27
26
18
19
15
20
26
16
19
13
17
19
28
20
14
24
22
22
22
12
23
21
12
20
22
19
15
17
16
20
19
19
18
14
14
14
18
27
22
21
17
12
21
16
13
19
12
17
19
22
18
15
25
25
15
24
8
18
19
16
21
14
11
23
24
27
18
18
19
15
23
12
19
10
15
11
6
7
8
20
16
23
20
21
17
14
19
21
16
16
11
18
25
16
18
21
21
22
13
7
20
19
19
16
14
23
12
15
25
16
16
12
16
12
23
23
19
20
18
14
17
23
14
16
13
20
21
14
14
15
16
18
20
11
14
14
22
14
7
23
19
15
22
13
15
20
14
17
7
19
17
18
17
14
17
16
14
19
15
22
22
16
14
15
10
19
19
13
22
18
19
17
13
20
21
11
13
23
21
20
15
22
11
22
21
23
21
23
14
16
25
15
12
14
19
13
12
17
50
128
124
99
84
94
67
47
49
64
58
56
46
55
33
49
35
47
35
42
39
31
29
22
31
28
34
24
32
17
18
26
19
11
15
15
32
13
19
25
24
19
18
18
18
22
13
16
19
17
11
15
10
16
15
20
9
12
18
22
18
16
7
15
16
12
12
17
16
21
14
15
13
11
19
17
17
14
10
13
8
13
11
14
11
8
11
12
15
9
7
13
18
11
17
19
9
12
13
12
10
17
7
5
11
16
13
14
13
11
7
15
13
10
14
16
6
12
9
14
24
111
96
71
73
73
64
59
57
50
51
56
48
49
37
39
37
33
49
52
33
37
39
33
36
34
32
38
32
19
30
25
32
30
26
37
24
24
29
25
31
24
20
35
26
23
25
25
21
29
17
20
27
36
20
16
19
20
11
18
21
21
18
22
12
16
19
20
19
24
13
28
16
22
11
20
17
18
16
27
15
18
23
15
15
19
15
14
21
16
19
11
21
17
16
20
18
18
11
15
20
24
25
20
23
25
15
16
18
21
23
15
18
20
17
23
20
16
23
18
21
3
10
2
7
12
9
6
6
21
17
21
26
29
19
21
13
18
16
18
17
23
19
18
15
17
17
21
28
16
14
19
10
21
13
16
19
21
24
17
20
18
11
11
21
24
19
24
17
17
15
23
14
14
13
14
22
17
15
12
19
23
17
13
17
14
18
9
13
21
20
12
12
18
15
19
14
16
11
16
12
18
17
16
16
24
17
17
17
9
20
27
14
17
21
15
16
20
16
20
16
15
21
16
22
16
15
19
20
21
13
19
10
19
24
18
13
11
22
25
15
21
25
16
28
20
21
23
33
122
106
112
89
85
80
85
64
65
56
56
51
58
44
43
45
45
28
39
26
34
32
38
35
16
26
25
24
38
28
20
25
25
13
21
20
8
21
18
17
22
20
14
18
13
14
13
10
7
13
12
14
13
12
7
11
12
13
10
21
14
15
12
15
12
10
16
13
18
11
17
14
16
7
16
13
15
13
21
8
16
17
9
7
13
8
16
16
13
22
14
13
18
16
7
11
12
14
15
13
12
17
15
9
15
12
11
11
5
12
14
11
10
11
9
8
11
13
8
24
100
81
68
71
83
72
79
67
51
54
63
54
60
50
49
42
44
35
41
37
43
40
29
47
35
32
31
24
34
29
18
30
26
27
22
29
26
22
21
34
17
25
20
22
21
23
15
23
21
20
21
22
17
28
20
18
14
14
26
18
20
21
24
18
21
16
17
22
20
15
17
23
13
22
16
18
18
13
17
18
22
21
21
10
16
20
20
19
24
17
19
12
24
31
13
20
18
13
22
20
22
13
20
12
13
17
23
17
26
15
19
28
17
14
20
19
14
12
13
15
7
12
3
8
3
10
5
8
10
10
6
15
26
24
27
20
21
19
28
29
27
23
23
22
25
18
24
14
20
23
8
17
19
25
22
8
24
14
24
15
15
16
23
23
25
15
19
16
21
19
17
9
14
25
21
25
18
15
16
20
16
27
17
25
23
13
19
22
15
22
15
18
15
18
20
21
18
14
18
17
11
19
17
20
20
13
21
16
18
20
17
17
15
13
20
21
20
19
21
18
11
13
12
13
7
14
21
17
21
17
20
17
19
16
17
21
15
21
23
17
16
13
20
21
16
13
20
14
16
22
18
44
121
103
87
99
74
93
75
74
51
51
51
59
47
40
44
36
42
36
37
38
24
34
27
28
22
29
29
24
21
21
23
22
24
9
17
24
22
22
27
16
15
10
24
17
17
26
15
11
20
22
12
9
7
19
15
13
10
19
11
18
17
14
8
14
14
17
10
13
10
12
9
13
12
13
12
15
12
14
13
14
8
13
15
10
10
11
13
16
12
16
10
8
10
8
15
23
13
13
16
10
15
13
16
13
11
9
17
6
8
13
16
12
17
19
13
16
12
5
13
37
91
105
82
66
73
59
62
60
65
47
44
54
47
46
53
42
39
37
37
34
33
32
37
48
37
40
43
36
25
22
28
24
28
24
20
37
23
28
26
34
32
21
29
30
32
19
23
15
34
26
22
20
18
20
15
20
15
24
20
18
24
21
25
15
29
15
10
14
17
25
22
16
24
15
20
18
16
15
17
24
13
15
17
16
15
20
13
11
22
14
14
13
17
18
16
14
13
22
18
10
11
15
21
20
20
19
25
32
16
24
21
21
18
17
22
16
23
23
16
9
7
6
7
12
4
8
8
12
8
3
6
6
4
7
11
10
33
17
24
16
21
20
21
26
17
15
16
18
29
24
16
17
18
31
31
11
20
14
18
18
19
13
21
17
21
17
16
17
17
24
18
15
27
20
15
15
16
20
25
15
24
17
14
12
25
17
18
19
14
20
20
13
23
15
17
22
15
16
16
14
15
14
9
10
12
15
13
16
20
15
18
16
20
13
17
8
18
19
15
17
24
24
19
17
17
20
27
26
16
6
25
15
13
15
22
18
22
26
15
13
19
15
13
11
21
12
16
27
24
11
11
25
20
20
15
47
130
89
78
89
81
77
67
60
54
64
49
57
48
40
54
63
42
42
39
34
35
41
31
40
27
27
22
23
22
20
23
24
18
18
19
17
24
18
19
13
17
10
20
28
17
14
19
20
17
15
11
23
14
16
15
16
15
13
15
15
17
10
16
12
16
15
13
21
15
12
9
11
11
12
10
7
14
15
15
14
16
13
10
17
12
12
14
9
10
12
16
9
14
10
9
11
8
14
9
6
10
9
14
14
7
15
13
6
15
11
20
12
12
8
12
5
4
7
21
22
96
92
79
76
70
72
59
59
71
54
55
57
44
57
41
43
42
47
34
45
36
46
39
32
30
40
38
32
32
28
24
24
30
29
35
26
29
28
31
29
16
13
30
25
16
20
19
26
15
30
22
24
24
19
22
23
26
14
17
20
24
22
25
21
15
19
9
20
21
17
15
20
17
16
14
27
14
16
22
14
21
27
17
16
18
14
14
18
23
20
19
18
17
18
9
25
9
17
17
17
16
15
20
19
15
19
12
13
20
20
15
17
13
18
20
12
27
20
20
14
6
6
6
12
10
8
4
3
8
7
5
7
9
3
7
7
7
8
8
8
30
26
22
17
28
19
14
28
19
24
43
25
22
24
25
16
16
18
26
20
23
27
26
17
11
22
22
19
18
21
16
23
15
18
19
20
21
18
19
16
24
15
17
14
23
22
24
24
13
13
24
21
19
16
23
16
20
18
15
15
16
18
22
17
21
9
17
17
14
18
31
13
19
15
13
18
13
19
23
15
20
22
21
25
14
12
16
19
15
19
18
17
20
10
11
21
14
22
21
17
16
13
21
19
18
22
12
19
19
15
10
28
25
18
17
19
19
10
17
43
150
108
89
80
85
76
85
60
57
64
58
51
40
38
58
31
36
44
40
39
29
37
26
22
19
28
23
28
18
27
29
19
27
17
20
23
12
17
16
14
20
20
9
23
13
11
17
7
23
26
18
9
15
11
13
9
11
19
10
18
17
16
15
12
24
20
15
13
12
14
19
9
19
13
10
12
7
14
15
9
16
12
17
14
18
21
12
8
9
21
11
28
9
13
17
12
15
6
17
12
10
14
13
15
14
6
13
7
14
7
6
19
9
16
10
14
8
14
14
29
100
100
74
78
70
69
56
62
74
56
47
52
43
54
56
50
32
39
36
35
39
30
52
37
35
43
30
32
33
31
35
28
25
30
30
35
33
22
25
25
18
24
21
11
34
16
19
32
24
18
27
25
21
19
21
18
20
21
25
22
20
22
17
19
23
20
20
20
14
15
18
10
28
23
20
10
26
17
19
24
18
20
12
20
20
21
16
25
14
20
20
22
19
14
18
12
22
16
12
12
22
20
16
23
14
20
14
18
16
12
17
15
19
17
21
17
19
18
11
18
11
2
4
7
5
7
4
3
8
8
4
4
5
7
6
8
6
4
7
7
4
8
6
15
28
30
20
20
22
21
17
17
22
20
23
20
19
19
20
26
20
25
25
17
19
15
19
18
17
20
9
17
15
16
20
14
16
21
28
27
23
19
17
28
21
11
16
15
16
18
24
17
24
14
24
17
15
22
20
15
21
22
17
16
16
17
21
15
19
15
20
24
21
21
17
17
18
10
17
16
10
12
17
25
18
14
15
23
16
17
13
13
23
24
19
17
20
11
29
13
13
20
13
19
15
13
9
27
27
21
14
8
18
11
26
16
15
21
14
19
9
21
23
26
125
114
91
84
84
85
73
67
58
56
44
45
54
41
47
39
38
28
34
39
35
24
31
18
37
27
22
26
25
27
26
23
18
16
24
19
18
26
19
22
19
15
18
24
17
16
13
15
12
14
21
10
11
19
15
9
12
11
16
12
12
8
9
19
14
8
13
13
15
11
13
24
26
10
15
8
12
12
19
10
8
14
13
12
14
14
11
12
21
10
7
15
12
13
11
5
13
8
12
7
11
7
18
19
6
17
7
17
13
9
15
12
12
11
15
15
12
13
14
33
93
70
75
79
68
75
59
69
47
54
56
45
49
46
45
37
37
33
32
41
43
34
40
39
26
41
28
45
35
32
36
22
37
23
28
27
31
31
20
26
19
19
25
20
32
20
27
26
26
21
20
22
17
26
19
22
18
20
20
20
17
13
24
12
16
22
25
18
14
24
28
24
15
15
13
14
18
23
20
18
25
18
21
15
20
13
22
17
16
19
21
21
15
17
19
22
20
15
16
9
28
18
16
15
14
30
19
21
13
12
14
14
18
20
19
24
14
15
19
11
10
6
6
6
10
10
8
9
6
7
11
8
10
2
5
6
10
7
4
8
6
2
9
6
6
8
5
6
34
32
33
27
27
25
21
29
25
38
18
11
24
26
20
16
24
11
19
28
16
13
19
20
28
26
18
22
18
24
17
10
18
21
17
23
21
15
14
17
13
18
14
20
24
17
19
16
12
16
12
17
12
12
24
23
17
20
18
24
16
13
16
16
16
15
19
25
15
17
17
25
14
17
16
18
15
21
18
18
24
17
13
14
13
16
12
19
15
14
20
18
22
21
21
10
18
22
17
15
15
23
21
18
20
17
20
25
20
18
29
18
22
7
14
28
16
20
17
49
130
102
103
81
75
72
83
69
59
53
50
46
55
46
47
33
52
30
39
27
32
31
31
33
26
28
25
24
21
21
26
22
19
26
19
23
18
19
18
13
21
18
19
7
21
18
14
9
13
16
10
17
12
15
18
11
10
13
7
15
15
8
14
15
16
18
12
15
12
15
13
15
12
8
10
16
8
10
14
14
12
11
15
15
14
7
13
14
13
12
6
7
10
12
12
8
11
15
12
14
10
18
11
10
12
12
14
10
9
14
18
20
9
7
13
14
12
12
15
30
92
85
62
79
68
56
60
68
64
57
70
44
52
51
46
59
44
42
32
39
33
35
41
31
40
23
33
23
46
28
33
24
24
35
26
20
28
15
27
25
23
35
30
27
18
23
19
21
24
20
24
23
17
23
18
25
12
14
24
14
20
14
24
19
22
25
22
25
19
12
14
19
17
12
20
18
28
13
17
19
16
20
14
21
18
20
26
16
17
29
10
13
10
18
17
18
16
11
14
15
14
22
19
25
15
18
15
16
19
13
20
12
11
13
16
15
22
16
17
13
9
7
7
8
9
8
12
8
5
6
3
4
9
7
6
2
8
10
6
9
10
9
6
4
5
3
8
7
7
8
7
16
22
23
35
25
13
36
27
26
37
21
28
26
17
22
30
12
31
26
14
19
20
18
18
26
23
20
12
20
22
15
18
19
19
20
18
15
30
18
17
19
14
18
17
12
23
22
15
14
19
18
17
18
17
10
18
15
14
16
17
18
16
19
8
19
11
21
19
15
12
15
12
20
15
16
16
22
21
21
24
17
5
16
10
15
17
21
16
18
19
19
15
13
15
15
17
22
24
22
19
18
18
25
16
26
22
16
13
14
20
19
16
18
19
21
8
15
24
20
13
35
120
94
80
98
85
63
79
77
58
66
63
48
50
57
45
46
38
39
35
40
23
33
36
30
27
21
24
27
18
26
18
21
19
21
17
24
22
19
13
15
14
15
20
21
16
18
18
8
11
16
11
15
15
15
15
6
19
8
9
14
14
13
13
13
11
24
21
11
7
12
17
13
11
15
14
10
14
16
22
15
16
18
15
16
7
16
17
10
12
14
6
14
8
11
10
12
15
9
14
15
10
15
8
11
10
7
11
9
11
18
16
10
10
19
15
13
12
9
14
34
103
88
89
78
71
60
68
41
67
68
65
45
48
47
53
46
52
45
50
48
40
40
37
28
40
24
27
35
21
36
36
22
30
35
27
26
28
19
25
33
27
16
24
36
23
21
23
16
19
26
32
23
19
22
22
19
20
19
21
15
21
13
20
22
18
22
25
16
20
20
21
33
18
23
14
14
15
17
16
19
26
20
16
18
18
14
24
22
19
22
16
22
12
22
18
26
19
12
17
19
24
23
17
19
11
21
16
18
13
17
23
13
19
12
14
21
15
14
11
17
12
5
7
9
10
8
8
6
3
5
6
8
6
5
5
9
4
4
8
6
7
7
5
7
12
8
4
8
6
5
12
14
6
4
8
11
41
25
25
26
29
20
29
29
21
31
22
26
21
27
12
22
25
22
22
23
23
24
13
21
18
14
19
20
22
22
16
21
19
20
20
14
12
22
16
21
22
19
24
21
17
21
18
11
18
17
20
13
17
10
14
16
23
19
21
18
13
20
18
19
19
21
18
21
18
15
20
8
16
13
20
19
14
13
21
9
16
16
28
15
13
13
20
18
17
14
24
27
21
15
20
14
22
18
22
15
21
13
19
16
17
17
17
17
23
16
17
15
19
18
14
14
23
14
14
34
125
92
95
78
86
93
75
68
62
68
57
57
43
56
44
45
40
42
44
34
29
37
34
25
30
25
31
35
27
22
21
22
20
17
28
9
11
17
21
18
17
21
18
14
17
17
14
23
9
10
12
20
14
15
11
9
13
11
20
20
11
11
24
19
16
10
17
16
16
13
13
16
10
8
9
20
5
17
16
10
13
16
18
8
8
9
10
14
15
9
8
13
9
12
14
6
15
10
5
7
10
13
14
19
14
13
14
13
17
12
11
15
17
23
5
13
8
18
11
30
113
80
66
75
67
57
58
53
55
48
52
59
38
39
43
37
37
53
34
34
37
43
30
26
34
30
32
30
24
33
40
24
26
30
36
31
19
22
18
25
28
33
21
26
21
21
16
19
25
33
30
23
23
18
20
24
22
16
13
13
27
22
19
15
15
17
16
18
18
16
17
21
18
16
20
17
15
17
18
16
16
12
16
15
17
17
19
16
10
22
17
14
16
20
21
20
19
17
16
17
22
10
26
17
21
17
21
22
18
15
16
24
22
16
25
23
17
16
22
17
9
5
5
11
8
5
6
8
5
6
5
7
6
2
7
10
4
8
6
8
9
11
3
2
11
4
7
7
9
7
5
5
7
7
9
7
10
11
6
14
32
26
29
26
28
32
19
23
27
20
27
26
13
23
23
28
35
24
26
22
19
24
17
27
25
19
15
16
25
24
17
17
20
19
20
18
18
21
13
16
18
12
17
20
12
22
7
14
17
21
22
10
20
12
12
6
17
15
12
22
16
13
20
20
14
19
16
18
20
19
20
25
19
18
13
19
16
14
16
27
13
18
17
12
14
17
16
24
20
22
14
13
24
24
21
15
14
16
15
20
14
16
33
16
14
24
22
15
25
23
19
14
21
15
20
23
17
14
9
32
133
97
94
92
80
72
64
59
70
59
53
42
44
54
38
39
40
41
36
28
26
39
30
30
39
33
20
29
15
20
13
22
17
27
25
14
29
20
18
18
19
16
20
23
19
10
26
18
17
14
15
13
7
17
10
20
16
18
22
16
19
10
13
11
12
15
18
9
19
7
17
8
19
13
12
11
15
12
8
11
10
22
15
11
9
13
14
15
10
14
18
9
10
13
21
13
17
11
15
17
12
14
15
16
12
12
13
11
11
5
18
11
16
13
13
18
11
19
14
30
104
63
85
82
81
68
74
54
53
64
45
53
57
48
48
44
42
47
52
42
42
39
35
31
40
37
33
24
27
28
23
32
28
23
29
31
21
20
34
20
31
33
26
28
27
25
21
28
19
13
30
19
24
15
30
19
29
19
23
15
19
22
22
24
23
16
19
27
16
19
18
23
20
23
14
12
18
13
21
27
26
20
15
17
18
24
16
16
14
16
22
19
11
15
20
21
22
23
17
22
21
14
13
15
16
10
22
16
17
14
17
12
14
16
17
15
20
13
12
17
9
4
6
5
8
10
7
4
5
12
5
6
5
11
3
9
5
5
8
7
4
5
4
7
10
7
9
7
4
8
12
11
4
6
6
6
8
2
10
5
9
1
9
11
37
31
37
35
27
30
26
36
28
26
23
20
19
21
25
16
17
27
28
22
16
33
15
23
27
19
26
24
24
16
24
24
20
23
11
20
16
15
17
19
15
31
17
18
26
22
20
18
17
20
10
19
14
8
15
20
22
15
23
19
19
16
14
22
19
17
14
20
12
14
17
15
22
24
16
15
18
17
17
12
14
17
10
16
15
23
11
11
19
20
12
19
20
19
19
15
22
21
16
12
13
20
18
18
13
13
17
24
19
21
12
16
16
17
17
16
20
17
12
31
125
106
88
93
76
65
73
53
79
58
64
58
53
54
45
35
32
43
39
26
33
31
29
38
19
36
26
33
21
16
23
32
19
24
19
17
22
18
19
16
17
27
24
12
14
13
18
15
14
16
15
15
16
15
13
13
12
15
23
12
11
10
15
9
9
10
16
11
17
13
12
26
11
13
13
10
12
14
12
5
15
12
13
12
18
17
15
14
19
6
9
14
13
9
14
12
10
19
11
9
7
16
11
15
10
11
14
14
8
11
17
17
14
12
18
11
14
15
10
21
115
104
77
88
57
74
70
55
61
51
60
48
51
48
52
52
45
41
50
48
44
44
34
40
31
53
30
29
30
39
20
31
31
38
24
28
29
18
20
21
31
28
25
22
17
24
28
15
35
16
23
16
14
18
23
22
21
26
22
17
24
22
23
18
24
15
18
15
18
18
9
24
25
20
11
17
24
25
25
15
21
20
23
16
23
15
16
19
17
16
26
14
14
16
20
19
12
20
15
22
23
17
13
19
15
21
9
17
17
16
17
12
22
15
18
16
16
16
20
22
8
4
3
8
6
7
7
5
6
3
6
5
9
6
8
11
9
6
9
6
2
6
6
7
7
7
4
9
5
9
7
10
14
4
13
7
4
3
9
9
9
10
10
10
10
5
8
14
29
29
26
23
21
24
34
17
19
23
26
15
21
22
25
21
24
27
18
24
27
19
26
13
18
16
22
22
11
19
22
23
14
13
12
20
11
21
27
22
20
18
17
20
16
21
22
17
19
17
16
19
15
20
19
14
18
24
11
24
23
33
12
12
10
18
20
20
17
24
14
16
18
17
15
17
20
18
17
17
20
19
18
20
18
16
19
14
14
17
14
17
21
20
13
18
19
16
21
20
14
16
18
27
24
14
14
13
19
15
21
22
18
19
24
18
19
20
15
35
123
105
81
78
79
79
71
71
64
54
55
52
50
48
42
37
42
54
46
26
37
36
34
29
23
32
22
19
19
31
36
16
21
14
14
18
23
16
25
18
26
13
16
10
5
12
14
16
16
10
15
13
18
9
14
16
16
16
14
17
10
18
7
7
13
13
12
15
12
13
15
12
17
12
12
12
17
16
18
13
11
15
12
13
8
7
10
16
12
16
16
11
17
14
15
9
13
9
13
14
9
18
14
12
16
8
15
12
14
11
11
15
11
10
14
16
8
11
7
26
115
79
60
68
67
69
71
75
57
60
65
41
43
48
46
35
42
31
47
47
44
38
27
47
34
30
21
15
25
29
38
33
19
34
20
33
22
31
29
27
24
25
22
31
23
31
26
11
35
19
13
18
18
22
21
17
21
21
18
32
16
25
19
17
17
24
19
24
17
17
19
19
32
20
18
18
20
14
14
19
23
22
21
22
10
20
14
21
20
18
18
18
23
19
22
20
20
22
21
20
25
14
8
19
27
19
24
18
11
16
15
17
19
19
16
20
20
17
17
21
4
8
14
6
7
5
4
7
9
8
5
9
5
12
6
11
4
6
7
3
9
9
5
5
8
14
8
4
7
9
8
6
8
5
5
8
9
4
7
3
7
3
5
4
3
7
6
9
2
12
4
14
42
32
35
31
36
27
28
31
33
32
25
22
30
19
25
23
13
21
24
23
23
16
24
23
17
17
25
25
31
29
20
20
11
18
24
25
18
16
23
20
15
14
22
23
23
16
21
20
19
21
14
10
17
21
17
13
25
21
20
19
19
17
16
19
16
22
16
12
13
14
20
21
21
19
14
21
24
23
18
17
22
15
16
15
12
12
16
25
18
23
16
22
21
13
27
19
15
21
14
10
14
22
19
13
14
11
13
13
17
20
14
14
20
14
22
19
17
13
24
28
127
90
86
89
82
70
64
66
60
67
60
53
48
47
42
47
52
31
53
31
42
27
33
24
27
34
19
25
32
26
19
15
16
20
26
13
14
23
13
17
15
21
18
19
14
18
19
17
12
20
20
20
10
20
10
16
10
8
3
15
12
11
6
16
6
20
11
8
14
6
12
14
8
10
13
14
7
11
8
14
10
15
7
6
13
14
14
15
13
14
9
7
10
11
14
13
15
15
16
19
7
11
12
15
12
14
12
14
11
13
13
15
8
15
14
20
14
18
11
32
86
78
73
71
66
65
62
62
49
62
49
41
59
37
41
41
54
38
47
40
48
39
42
25
39
41
26
40
31
31
32
32
31
29
31
27
26
34
23
32
27
23
24
19
23
34
28
25
20
21
18
16
19
23
27
21
20
18
17
16
22
20
22
18
16
17
14
23
22
10
19
21
26
15
20
16
19
20
12
19
13
15
8
11
14
9
17
22
14
20
21
12
20
15
14
15
24
23
20
15
17
17
19
14
15
27
16
24
12
15
18
12
16
16
24
11
17
21
24
19
9
8
11
11
6
8
7
7
6
9
3
3
5
7
10
5
6
10
8
9
10
4
3
10
4
7
1
5
9
8
5
11
7
7
6
4
5
10
5
6
4
6
7
8
11
8
6
6
5
9
8
3
3
6
5
12
43
38
31
19
45
21
36
37
21
28
36
22
21
26
32
19
27
34
21
21
30
22
22
17
21
15
17
20
16
18
26
12
17
18
16
15
20
17
16
18
12
13
16
13
15
20
11
19
17
24
17
18
13
16
22
15
15
24
17
12
21
9
14
21
19
21
23
13
16
21
16
14
15
13
22
16
17
21
17
15
15
12
17
19
17
19
16
12
15
26
19
18
20
17
20
28
11
12
19
16
15
10
21
20
15
11
22
17
14
19
11
25
15
19
18
15
19
19
13
33
149
96
101
97
83
78
86
63
54
62
61
51
45
53
39
57
40
39
43
33
28
30
26
31
24
26
27
26
19
25
9
22
17
29
20
25
19
18
17
15
23
10
8
24
13
9
10
13
18
14
11
23
12
15
13
20
18
15
11
13
17
18
7
13
7
15
8
20
14
15
19
17
12
10
16
11
12
17
16
9
14
14
9
20
11
11
14
11
14
15
11
6
12
12
13
6
13
22
16
15
18
16
14
14
15
6
15
10
12
9
7
23
5
11
21
7
12
8
10
28
104
81
76
62
71
63
67
54
55
49
59
38
50
45
48
35
38
70
41
40
43
40
36
39
34
33
29
34
23
24
30
27
20
42
28
28
23
28
32
24
29
23
26
26
23
26
18
22
23
26
20
19
28
18
28
26
21
30
24
23
22
18
18
10
24
12
16
19
24
19
16
22
19
22
23
20
20
21
21
15
33
20
19
20
20
16
24
12
20
19
15
19
22
22
17
20
15
13
18
19
17
18
20
14
15
17
12
12
20
17
18
20
16
13
15
29
16
22
14
14
10
2
8
6
9
5
5
6
13
4
5
8
5
3
12
10
7
7
8
7
12
8
9
5
9
5
12
7
7
8
9
7
7
9
5
4
6
10
8
6
10
9
4
10
7
5
9
9
9
6
9
2
8
7
3
4
6
11
8
13
41
31
30
22
35
25
28
23
27
17
16
32
26
17
28
30
29
17
29
25
17
21
30
18
21
25
28
13
20
24
24
23
13
29
11
13
20
15
14
20
18
19
19
22
18
14
22
20
16
16
22
20
19
22
23
23
16
9
18
19
17
10
27
14
20
21
23
14
21
18
13
18
11
24
24
26
13
16
15
18
15
23
13
10
25
17
25
20
20
10
19
15
20
13
13
21
19
13
17
18
20
19
12
28
18
16
12
11
24
18
22
11
20
21
17
15
17
25
20
33
113
92
82
81
84
65
62
66
62
50
55
74
43
54
42
41
47
42
37
30
38
31
37
32
31
21
35
18
27
20
28
20
19
18
21
25
17
22
19
21
31
28
18
10
18
12
17
15
18
20
13
9
4
15
10
19
11
15
10
12
13
20
12
20
14
12
10
9
17
17
11
9
14
11
13
16
15
6
19
13
16
15
10
10
13
16
6
13
10
3
16
21
15
14
12
12
18
8
13
10
13
10
8
10
10
17
8
7
17
10
12
12
15
10
11
12
12
14
12
28
98
84
85
73
72
61
50
64
55
54
47
42
49
47
44
41
31
46
31
33
37
44
34
37
35
30
34
37
27
32
24
37
31
24
20
29
27
27
24
23
35
29
26
22
25
23
21
27
21
19
23
16
26
26
27
12
26
18
21
19
25
9
22
24
17
14
20
19
16
21
6
22
6
22
15
20
18
34
20
17
18
15
11
22
23
15
7
16
17
15
17
21
17
14
23
16
14
20
20
11
20
19
15
22
21
16
12
20
16
15
16
11
17
24
22
22
18
12
12
17
10
4
3
3
9
7
4
10
5
6
4
5
2
8
5
9
9
9
6
8
5
11
10
11
7
7
6
5
6
7
3
4
7
8
6
10
9
4
5
3
7
3
9
5
5
6
10
4
5
4
5
13
9
10
2
6
9
5
4
10
10
8
9
12
42
31
36
24
31
29
31
28
34
26
23
25
28
32
24
31
24
30
26
18
15
25
25
31
18
19
23
23
32
18
18
13
19
17
20
27
23
14
20
22
17
15
18
14
15
16
21
22
23
14
21
19
16
21
18
22
24
12
18
19
15
14
19
18
12
20
22
16
18
23
8
24
22
15
22
18
18
17
26
12
15
21
18
21
13
22
14
17
17
23
21
21
13
13
14
17
11
16
22
14
19
18
14
20
17
21
17
14
23
19
24
25
18
16
17
22
25
18
21
36
126
95
89
85
83
71
66
59
54
72
57
75
55
46
47
46
28
33
39
28
32
38
19
28
43
16
31
28
19
23
24
22
15
21
18
19
30
13
17
16
26
13
24
19
7
15
17
13
14
13
19
17
8
19
15
10
16
15
16
13
15
20
17
16
15
11
26
12
10
25
19
15
12
18
10
14
10
13
14
9
15
11
17
14
9
10
9
11
16
9
13
11
13
8
4
10
14
19
8
13
12
10
6
11
12
11
10
14
9
13
15
12
5
11
4
12
13
9
8
40
106
76
86
67
67
62
69
56
63
54
46
51
52
52
44
38
41
39
40
41
37
36
47
35
35
29
42
33
26
33
35
32
20
19
30
21
33
28
25
27
21
25
13
19
19
25
17
21
19
21
20
23
22
14
25
19
22
15
23
20
16
14
18
26
18
22
19
12
17
18
16
19
18
23
16
15
21
14
13
14
21
17
24
25
17
19
16
24
12
23
18
10
22
21
29
15
24
22
14
8
20
17
12
21
17
12
19
22
17
20
17
13
21
16
17
21
23
20
18
14
8
7
6
8
6
11
4
10
4
11
4
5
5
4
5
3
2
9
9
3
6
8
7
5
10
7
9
5
6
9
9
6
5
9
7
7
10
6
9
11
7
6
6
5
3
5
5
9
5
7
10
10
12
6
9
6
6
8
9
6
5
6
6
4
9
4
6
8
46
41
39
44
30
22
39
29
36
32
17
23
24
25
18
16
21
27
21
21
18
23
21
25
16
23
13
17
12
20
13
16
22
24
17
23
19
12
20
29
16
25
15
17
18
24
29
23
11
15
25
19
19
22
18
20
14
15
29
19
21
24
10
26
17
21
22
12
16
15
18
17
17
18
21
20
13
20
19
13
13
19
15
18
23
12
19
14
15
14
14
13
11
18
18
18
14
11
19
15
19
21
17
19
19
17
12
12
12
15
13
21
20
16
19
12
15
21
20
36
126
98
113
104
88
69
58
66
65
71
59
55
60
59
50
37
37
44
45
37
26
32
30
23
25
24
27
27
25
18
25
17
19
20
21
29
18
17
28
18
14
14
16
15
12
16
12
17
12
12
14
9
14
10
14
15
9
21
8
17
14
11
14
14
12
18
18
18
11
16
17
12
12
10
13
11
11
14
8
12
14
18
13
9
11
12
11
14
12
15
16
12
17
9
16
11
8
10
10
13
12
9
9
11
12
10
10
12
20
14
14
18
16
7
13
14
12
10
8
20
94
84
83
53
66
69
69
61
64
67
65
48
50
42
41
49
32
48
40
54
38
35
44
42
32
35
25
40
33
26
28
29
37
27
22
22
21
23
24
21
32
24
23
30
28
25
18
16
23
16
24
29
21
22
26
17
21
9
22
14
21
21
18
18
32
16
18
19
10
18
15
19
20
17
23
23
25
12
17
28
14
19
22
23
25
15
18
18
20
12
12
25
20
17
21
13
13
22
14
16
14
15
16
14
18
17
17
16
16
18
14
19
24
14
16
15
13
11
22
15
6
5
6
8
6
4
5
6
7
12
3
6
7
3
8
7
10
7
7
7
6
8
11
11
4
5
6
15
8
3
2
4
6
6
6
7
5
1
9
8
9
6
3
7
6
8
5
5
10
7
6
2
7
5
11
7
9
8
4
5
12
7
13
3
5
6
7
5
5
6
14
10
31
29
39
34
35
23
36
31
22
23
21
24
24
25
16
29
25
28
22
29
16
18
22
24
19
17
16
20
16
19
25
14
24
19
22
24
25
20
16
16
25
15
17
20
20
18
26
17
18
15
10
13
13
18
23
16
20
16
16
19
18
21
15
19
24
16
14
23
13
26
16
16
11
17
16
13
16
12
16
11
23
11
20
13
12
25
16
24
19
15
20
24
20
17
18
13
14
16
12
13
23
17
16
20
21
22
13
13
18
13
12
13
15
21
17
17
14
18
8
33
143
102
104
86
85
81
63
61
67
51
44
47
61
44
49
46
38
50
33
20
37
23
40
32
39
28
31
24
39
21
21
18
22
18
22
23
18
19
18
17
13
12
12
12
20
13
12
15
17
15
27
23
13
15
14
13
14
9
10
16
8
11
8
10
13
16
15
16
11
12
13
12
9
19
17
14
8
15
13
9
14
11
22
9
20
10
15
18
11
13
15
15
13
14
20
15
18
10
14
19
12
11
15
9
10
6
14
12
17
13
11
17
10
10
8
21
6
9
16
30
104
81
67
70
73
72
58
59
58
64
67
47
66
52
57
38
54
39
49
33
36
32
23
33
31
32
42
38
34
29
33
22
27
23
33
23
28
21
30
21
37
25
27
32
27
21
20
19
14
15
20
16
18
24
17
22
23
23
20
18
19
18
24
24
22
16
19
19
17
15
17
17
19
22
18
12
14
16
13
16
15
13
19
19
19
17
19
21
20
21
12
18
18
15
22
21
16
15
16
17
17
21
24
10
15
18
20
28
24
19
11
23
12
17
12
20
24
22
21
17
10
6
10
5
7
2
6
5
6
3
4
10
7
7
4
6
6
4
4
8
7
7
7
11
7
3
7
8
6
10
8
5
6
4
11
8
7
6
5
5
9
7
4
10
12
5
5
8
5
6
7
6
3
9
1
8
6
10
7
7
5
9
10
6
5
7
5
7
4
7
9
5
8
9
3
12
41
36
32
38
22
20
28
28
31
32
31
33
31
34
19
20
16
22
28
25
19
21
24
21
22
20
23
17
14
21
23
19
21
23
20
23
17
20
19
22
12
15
16
19
23
30
24
17
29
20
19
28
21
17
18
21
12
17
14
17
16
18
20
21
19
15
22
16
16
19
16
14
13
14
17
18
23
18
22
19
20
11
14
26
12
13
25
14
20
19
24
20
21
16
18
18
16
15
11
19
16
17
16
11
13
22
22
12
9
17
13
13
16
18
21
16
14
13
14
39
123
88
103
90
64
76
81
60
62
59
56
51
50
31
52
48
45
44
33
35
39
27
27
36
25
30
30
21
23
18
32
19
16
13
26
18
15
21
13
13
11
21
18
9
15
17
20
14
18
15
18
10
11
22
21
23
10
10
10
19
10
12
17
9
21
10
11
12
16
10
12
15
11
12
15
13
15
14
10
8
12
14
9
12
11
11
12
12
13
15
14
16
18
18
9
17
19
13
13
7
15
10
12
15
9
17
9
20
12
11
13
14
10
14
16
13
13
13
10
31
108
72
89
66
61
59
87
69
67
62
43
50
53
58
55
42
41
49
37
27
35
39
39
32
37
25
39
32
39
23
29
29
32
33
31
31
18
22
36
28
28
20
23
20
26
22
21
18
19
22
28
23
20
27
20
20
24
25
17
18
22
22
18
20
13
14
23
16
17
18
18
13
25
14
21
20
11
21
24
16
20
16
16
16
19
20
17
16
16
16
16
14
13
14
12
13
11
16
14
16
14
24
18
16
16
14
16
19
14
18
13
24
19
14
18
20
17
19
13
22
12
8
11
8
4
13
3
1
8
2
5
6
4
8
2
3
7
9
11
8
4
8
8
4
4
5
7
12
5
10
3
10
9
5
6
3
12
2
3
5
13
6
10
6
10
4
8
6
7
6
9
5
5
8
9
7
3
8
6
7
7
4
9
8
11
4
9
6
7
11
5
9
6
13
10
4
5
8
5
13
45
42
42
29
35
41
26
34
27
27
34
37
26
19
34
34
23
28
20
31
34
18
23
16
22
30
19
22
20
19
15
20
23
18
18
21
16
35
12
17
20
21
21
21
16
13
10
18
14
16
18
19
21
25
15
12
21
20
12
21
19
22
21
23
20
16
14
21
15
19
21
18
14
19
17
29
13
12
19
22
25
17
16
12
18
14
18
26
21
21
15
20
16
23
14
16
8
13
16
22
16
14
12
18
17
19
17
17
26
20
15
17
16
19
15
22
16
18
14
30
124
92
88
88
73
73
81
68
65
63
48
59
52
35
40
36
42
41
30
47
34
34
33
41
36
24
26
31
24
25
17
23
11
26
26
15
23
20
20
21
27
13
13
16
19
9
14
16
12
18
18
23
8
15
10
17
13
10
9
17
11
13
11
7
11
14
14
10
13
19
17
12
13
15
19
14
14
18
10
14
22
10
16
14
13
10
9
15
16
16
12
10
15
11
11
11
9
15
21
14
19
16
9
10
13
12
10
13
11
12
15
17
15
15
15
11
18
10
13
27
93
84
73
75
72
73
57
65
81
68
55
55
47
52
46
36
41
44
37
31
43
36
24
30
38
40
24
33
35
23
23
23
33
28
35
22
30
17
31
36
28
25
16
13
19
29
23
24
16
20
19
17
21
20
26
16
29
17
26
19
17
13
14
27
15
23
19
20
17
20
19
20
20
23
19
16
16
24
18
14
15
10
21
20
19
16
9
13
16
19
23
22
17
15
18
20
16
12
15
18
14
14
15
20
17
19
13
16
14
14
13
24
19
15
21
25
20
15
20
14
9
11
10
6
7
8
10
10
11
6
6
5
8
12
6
5
9
5
9
5
8
8
3
10
7
10
5
7
9
7
7
8
9
6
12
5
8
4
7
7
5
4
10
7
10
3
12
2
2
11
8
6
2
7
5
5
13
11
15
9
11
10
5
4
7
6
5
6
11
11
4
8
4
4
2
6
9
3
13
6
8
8
3
8
34
39
37
39
35
37
30
30
31
30
28
37
21
28
26
31
29
24
31
30
32
23
21
23
26
20
29
24
27
19
18
21
22
23
19
17
23
19
17
17
17
17
21
21
15
23
31
17
15
17
17
20
20
17
23
13
20
27
27
10
16
17
17
14
27
26
18
15
15
20
21
18
18
30
18
15
15
11
11
19
17
21
20
19
12
19
18
22
21
23
13
11
14
23
21
15
14
17
18
22
18
11
15
19
24
17
18
12
19
16
15
17
18
20
20
24
22
15
20
29
122
101
96
80
82
71
63
59
53
65
56
55
49
49
43
46
31
34
33
36
30
24
26
26
26
29
29
22
19
18
25
30
18
19
16
16
23
15
15
22
20
13
12
22
17
11
15
14
16
13
10
22
11
10
14
18
19
15
10
11
16
8
13
14
6
12
17
15
14
12
8
15
12
7
14
15
13
22
18
13
11
15
12
14
12
14
11
8
11
11
9
16
10
8
10
17
12
10
11
12
16
16
8
8
15
10
7
11
15
14
13
9
9
10
14
15
11
14
12
31
105
82
70
73
76
63
49
66
60
49
63
56
40
51
63
48
51
41
43
44
36
32
26
38
27
42
41
29
38
36
33
23
20
35
25
25
30
25
26
32
29
33
26
19
28
27
17
13
18
20
26
19
21
24
19
23
23
17
16
16
20
18
12
21
17
17
14
10
13
19
17
25
18
21
21
13
14
17
25
19
28
22
14
16
21
22
26
20
20
22
13
21
18
24
22
25
24
22
18
21
22
11
15
20
14
11
18
14
12
19
14
21
16
17
21
19
21
9
19
16
12
11
4
8
7
4
7
11
6
9
10
10
8
9
6
8
6
5
3
6
6
9
6
8
10
5
6
6
3
5
9
6
7
3
8
4
7
4
9
2
11
6
3
4
8
8
3
9
9
5
12
4
4
6
7
3
7
5
9
6
10
8
6
10
8
5
8
10
10
3
8
7
10
4
4
7
5
9
3
3
6
8
4
5
13
6
9
13
27
41
41
38
36
18
33
31
23
21
29
30
23
32
26
27
22
23
27
28
18
29
26
10
22
19
20
18
18
13
18
21
14
21
26
19
21
23
14
23
20
19
26
18
21
21
13
15
16
19
24
21
20
14
18
17
17
13
15
17
17
12
25
14
22
23
14
16
17
19
23
17
13
11
13
22
20
11
18
27
20
19
18
13
14
20
16
13
19
11
21
17
15
21
18
20
15
19
16
20
15
11
17
24
20
21
21
20
19
14
15
15
19
26
15
18
16
10
30
36
129
91
83
80
69
70
68
63
51
52
58
53
59
54
31
51
40
50
44
40
39
30
41
35
22
32
20
29
21
26
27
14
27
18
20
14
23
23
16
21
20
11
14
12
13
16
13
12
12
21
10
15
13
16
14
7
9
9
20
15
11
18
13
13
12
16
11
14
19
13
18
6
13
18
14
11
13
16
17
10
14
14
14
15
12
17
14
10
11
11
20
12
7
13
26
17
12
10
16
12
14
13
14
13
15
8
15
14
9
13
17
11
9
11
14
12
12
13
18
28
108
86
81
72
52
85
58
56
67
63
75
58
40
38
49
51
50
44
37
36
30
32
28
40
38
43
34
36
33
31
24
39
27
21
22
22
35
26
23
24
25
26
23
15
21
21
32
21
15
21
20
18
13
20
18
19
18
19
20
19
21
26
27
20
22
12
20
14
16
18
17
24
19
18
14
20
16
20
20
17
12
17
15
13
20
16
17
13
20
19
22
20
12
14
15
20
14
13
20
18
18
8
22
14
12
24
23
16
12
25
28
20
22
17
13
22
13
11
23
13
4
10
9
7
10
11
7
7
11
3
6
9
5
8
7
9
6
10
6
6
7
7
8
2
8
12
6
8
8
8
5
7
10
8
4
6
3
3
10
5
8
7
5
4
9
5
8
4
9
10
10
5
6
3
7
5
9
7
5
9
10
7
10
6
8
8
6
6
7
4
2
4
3
5
13
5
9
4
13
6
11
4
9
9
8
9
3
6
6
4
5
14
43
40
28
40
35
34
26
33
25
31
27
26
42
25
27
21
25
28
22
22
23
19
18
23
22
23
27
20
23
23
28
27
23
14
21
21
20
21
18
17
21
14
14
10
15
17
20
22
20
17
18
16
12
11
24
16
14
20
15
15
11
16
21
21
14
14
17
16
18
24
18
18
16
22
20
16
22
17
26
21
11
27
19
12
20
16
24
18
14
26
20
21
17
26
24
18
16
19
12
13
12
13
23
18
17
19
17
20
12
18
17
23
17
23
17
16
19
11
20
35
139
106
111
96
78
79
80
57
63
57
60
49
40
40
46
35
40
42
43
30
26
37
34
27
25
22
33
30
26
21
24
15
24
13
35
17
18
26
15
25
9
20
21
13
10
18
13
14
19
19
15
10
18
12
16
14
16
9
12
16
15
12
18
18
11
11
12
12
15
9
13
12
19
12
22
11
13
8
19
16
17
14
8
11
13
12
11
13
13
13
13
14
14
9
10
14
15
13
14
11
5
16
6
12
11
14
9
10
18
10
20
11
11
15
14
14
14
18
13
29
108
80
60
90
50
75
49
61
44
41
63
39
53
52
46
36
46
41
50
32
41
47
37
36
35
30
34
34
27
22
32
32
27
20
24
34
25
23
23
24
29
33
21
27
15
22
24
28
21
21
25
14
18
21
23
18
18
15
17
21
21
19
19
13
17
17
20
23
12
22
18
18
19
15
24
23
22
14
20
25
19
14
20
30
20
18
14
15
16
25
16
15
16
15
13
12
13
17
23
13
14
14
19
14
16
13
19
15
22
22
10
23
13
22
11
16
17
21
12
9
9
9
4
10
6
6
7
5
7
9
1
5
6
9
7
7
8
7
6
8
11
7
10
6
7
5
7
9
9
6
9
12
10
8
3
6
6
7
0
7
6
8
12
12
7
5
7
9
8
11
2
9
5
7
5
7
10
5
9
6
9
14
6
9
5
5
4
3
7
8
6
6
2
9
8
9
11
9
3
4
2
6
6
7
3
6
8
6
12
6
13
8
9
5
8
10
50
50
47
39
31
38
33
30
37
27
36
22
25
27
32
25
19
32
23
28
19
27
24
20
21
29
16
24
33
25
22
21
24
29
26
23
15
18
21
23
20
19
12
18
19
17
15
10
12
26
19
22
21
14
17
20
15
22
30
21
18
15
12
24
16
15
11
16
18
15
24
20
16
11
13
15
18
19
22
15
18
18
15
12
18
16
22
22
15
16
23
14
16
16
10
15
23
16
24
21
21
20
15
14
18
25
12
15
15
18
12
12
23
14
22
16
15
14
23
36
147
100
110
84
90
62
71
58
71
49
55
62
62
42
45
46
48
35
40
39
45
28
30
31
26
19
15
23
28
28
26
24
16
25
27
15
23
21
22
18
21
14
17
13
16
19
18
14
12
12
18
11
16
13
12
13
13
21
18
13
16
12
11
6
23
12
15
11
7
17
19
13
13
5
16
11
16
12
17
8
18
10
18
11
14
6
11
8
16
13
14
14
12
9
10
12
17
15
10
12
11
17
10
8
20
7
8
11
5
11
15
14
10
10
9
10
11
17
12
19
78
93
83
86
72
57
53
62
74
45
46
48
53
45
47
41
46
43
43
43
46
34
36
30
42
34
21
21
29
38
22
27
33
29
24
31
28
28
21
19
27
25
21
24
22
19
28
18
17
22
17
24
28
22
18
15
22
18
24
18
18
18
20
14
24
17
12
20
18
22
18
16
21
25
16
13
14
21
19
12
23
24
17
19
18
14
22
11
16
22
22
14
13
15
15
16
20
20
16
15
15
14
21
22
19
24
13
15
17
16
9
17
28
16
11
19
23
20
28
21
10
10
9
7
2
5
7
9
8
9
4
7
8
4
6
9
11
10
11
6
4
7
5
7
6
1
4
7
11
4
4
6
8
8
5
2
7
7
10
5
6
9
3
13
8
7
5
8
7
6
7
3
6
5
11
6
4
5
6
10
6
4
7
8
6
8
3
10
9
9
1
8
7
7
3
1
5
5
6
5
5
10
9
4
7
5
8
5
7
7
11
3
7
8
1
4
4
7
11
8
47
51
36
36
40
34
41
35
33
27
29
23
23
27
24
23
28
23
25
25
21
19
23
19
32
14
19
20
27
21
14
14
18
15
26
27
21
21
28
20
19
10
23
18
19
19
27
15
15
10
12
16
18
18
8
13
22
22
24
13
20
17
14
17
21
14
19
17
10
14
19
12
26
21
14
12
12
15
15
15
13
15
16
22
17
14
24
10
18
20
22
20
24
15
19
12
23
15
15
18
15
16
17
17
15
21
13
23
24
15
20
20
18
15
16
12
12
14
15
42
132
98
88
89
87
66
56
67
63
52
52
48
61
46
53
52
25
36
35
24
32
27
38
26
30
30
22
22
23
22
20
33
20
13
24
17
19
21
21
21
18
15
13
19
16
16
20
18
13
11
27
14
15
12
9
10
8
10
14
15
16
16
12
8
18
16
9
12
13
12
13
24
11
14
11
18
11
14
19
13
12
12
14
10
15
12
15
16
6
13
14
11
19
18
17
15
10
15
11
13
11
12
11
7
13
7
10
10
11
12
14
10
13
12
8
14
12
14
13
17
102
75
73
75
70
60
59
58
49
58
52
55
48
52
41
35
49
42
35
47
34
33
23
38
44
44
24
27
28
23
30
28
27
29
23
28
26
35
27
23
23
28
29
17
17
19
20
25
21
26
20
23
19
18
19
19
19
14
25
18
20
22
24
20
32
15
21
18
13
23
16
23
12
21
15
20
22
20
14
10
19
23
23
13
14
21
15
16
17
21
19
18
12
20
16
24
22
21
14
20
18
27
11
23
17
15
15
24
19
20
19
19
16
14
11
16
12
19
28
16
2
12
4
9
8
7
7
8
10
4
7
8
6
5
11
6
8
7
4
6
3
6
6
8
9
6
9
6
13
2
5
5
5
7
4
9
6
4
2
6
6
8
8
4
11
6
4
8
7
8
6
8
8
6
4
5
6
6
3
12
5
7
4
9
11
7
9
4
10
5
9
4
7
5
6
8
5
9
12
0
12
3
2
5
6
6
4
7
7
7
6
7
9
9
7
7
6
7
6
8
5
7
4
16
44
46
39
30
41
31
31
29
25
33
39
30
30
40
31
19
26
17
22
14
20
15
21
21
23
22
25
24
20
29
21
20
17
24
24
18
13
24
24
18
14
15
21
13
19
26
11
28
15
26
14
24
18
13
25
18
19
9
12
19
26
21
14
20
17
13
9
19
17
22
12
13
12
15
13
13
13
24
13
9
18
24
18
22
22
15
13
18
21
21
25
20
15
13
8
16
21
14
24
14
21
12
16
9
8
17
14
20
18
14
11
20
13
14
22
18
18
15
19
30
143
99
98
78
75
72
79
53
63
57
52
59
55
40
50
49
47
47
34
37
39
34
24
18
22
33
21
31
36
27
21
15
23
19
19
16
16
19
19
21
21
12
10
22
15
9
9
12
12
15
13
9
13
14
14
17
9
12
10
20
13
11
17
14
15
9
16
10
12
26
16
18
10
15
15
17
9
12
19
10
8
20
18
10
16
16
12
13
18
17
14
8
16
11
14
13
16
11
10
10
9
12
14
8
15
10
9
12
7
12
8
20
7
13
13
10
13
13
14
21
88
93
76
69
64
81
61
61
60
56
55
60
59
47
39
50
40
41
43
60
39
30
43
32
38
27
37
39
38
27
30
25
29
25
32
28
26
24
28
32
29
20
20
15
27
28
27
23
24
19
18
15
21
19
25
17
16
20
12
14
19
21
17
21
22
25
24
23
20
11
16
35
11
14
19
20
25
23
33
11
7
22
19
19
16
26
22
14
17
18
19
19
21
13
25
18
18
19
19
9
15
19
16
18
17
16
16
12
21
18
17
16
14
15
19
22
23
19
18
13
14
2
4
4
5
8
7
6
8
4
6
5
13
7
8
6
5
9
7
8
10
4
4
10
8
6
5
4
8
11
13
8
12
5
9
12
6
6
10
5
6
11
8
10
11
5
5
9
11
10
9
8
13
9
3
8
6
6
9
7
8
5
8
7
5
6
5
5
12
10
5
5
5
4
6
7
5
9
8
3
9
5
9
6
8
3
7
8
6
8
5
7
8
10
8
7
8
4
6
5
5
5
9
9
8
3
11
11
45
34
37
36
36
37
28
20
48
30
27
22
22
36
22
23
34
26
18
25
24
28
33
26
24
21
18
19
23
14
22
21
25
18
24
16
25
20
27
21
20
22
24
18
29
17
22
23
17
17
21
17
13
24
24
21
13
13
23
22
19
23
18
20
15
14
14
13
10
15
11
20
18
19
25
19
15
17
10
16
24
9
10
14
20
15
22
8
21
14
26
12
20
18
21
19
19
19
11
15
13
16
11
13
28
12
21
16
21
14
22
21
19
13
14
14
16
12
18
37
130
110
103
88
66
61
68
64
56
55
57
64
51
51
44
36
44
47
52
35
27
31
31
28
22
27
19
18
15
24
17
27
15
16
24
18
20
27
18
8
21
21
24
12
14
14
16
10
9
12
12
19
14
19
17
9
16
14
7
20
11
15
15
14
7
13
11
18
12
10
19
9
12
16
14
14
14
10
7
13
11
16
11
13
14
15
11
8
7
9
14
7
13
12
10
6
9
11
12
12
9
16
12
12
15
9
9
5
8
13
9
9
19
7
17
9
11
12
19
22
96
97
83
57
68
70
53
54
65
62
60
46
43
45
49
45
56
40
50
33
44
43
38
25
36
24
40
33
28
34
31
39
33
27
21
27
25
29
27
26
27
19
23
29
24
22
14
31
30
18
23
19
22
26
21
19
20
22
29
19
18
22
22
19
20
22
14
15
20
22
17
21
16
21
25
24
19
20
14
25
26
21
14
13
16
15
14
17
29
18
16
23
16
19
18
13
11
17
17
21
16
15
26
16
12
19
14
26
17
16
18
20
21
12
20
15
21
20
14
15
5
12
7
11
8
6
5
6
6
9
8
12
8
7
4
9
6
6
3
2
5
5
4
10
11
6
5
4
8
8
5
9
12
6
5
10
7
12
8
4
8
3
8
5
10
5
11
7
6
5
4
12
3
7
10
6
4
7
9
9
8
3
5
3
8
5
9
7
5
6
7
3
5
6
5
7
12
6
0
2
5
8
5
12
3
2
4
6
6
6
9
6
6
8
9
9
12
4
5
11
8
6
7
5
4
6
3
8
6
4
6
7
45
45
42
39
41
24
33
27
30
27
32
37
31
22
34
31
28
34
23
27
22
23
19
27
16
16
21
20
21
14
24
17
20
16
23
23
14
18
16
17
23
14
21
14
20
22
19
20
22
19
23
19
19
15
20
16
11
16
13
17
23
16
23
13
21
21
17
15
18
18
19
21
16
25
13
21
11
17
16
19
13
25
24
20
24
13
13
16
21
18
13
20
17
20
22
9
21
14
10
15
12
12
14
21
19
16
18
28
20
16
25
9
18
21
17
19
20
18
26
36
125
88
82
77
86
65
72
67
49
53
42
46
56
40
51
48
37
47
32
38
35
28
34
22
28
24
29
32
28
21
22
24
17
23
22
14
19
16
15
11
17
16
15
22
14
13
11
22
18
9
9
13
9
17
22
9
12
12
6
13
15
13
18
10
14
19
15
6
9
15
5
13
13
11
20
9
12
13
11
9
7
13
8
10
8
18
12
13
14
13
10
13
12
13
12
15
14
12
8
10
16
7
11
15
15
7
6
14
16
19
10
12
14
14
15
13
14
10
21
38
99
75
53
77
66
66
59
45
53
71
52
53
59
39
47
53
31
44
42
44
34
28
40
36
36
37
30
32
24
25
29
29
28
27
30
34
31
25
19
17
29
28
24
14
26
17
34
31
23
14
30
21
31
30
19
28
22
19
17
12
23
21
13
12
16
19
17
13
19
16
17
29
16
16
16
13
20
30
26
17
14
14
21
17
26
18
13
26
10
11
15
23
15
16
18
23
20
19
24
19
25
21
22
18
17
23
12
10
20
13
15
20
9
10
18
17
15
19
12
26
9
8
7
5
13
5
5
1
8
3
9
10
13
8
2
9
11
4
4
9
11
5
3
6
12
6
4
3
5
4
12
5
7
5
3
8
8
2
4
8
3
8
7
9
10
8
5
5
8
4
6
2
7
7
3
7
5
7
9
9
9
4
4
4
8
8
5
10
7
10
6
6
7
7
6
10
5
5
2
11
6
9
5
6
6
9
10
4
5
6
2
7
6
6
7
7
4
10
5
7
5
9
11
5
7
2
8
11
9
8
9
6
5
5
4
21
47
43
39
36
30
39
27
30
29
31
31
36
37
20
23
24
18
19
18
25
20
29
21
29
19
27
31
23
26
20
19
17
21
18
21
25
17
22
22
25
16
11
17
20
26
19
17
19
19
18
27
19
33
19
17
23
23
21
18
23
16
16
16
19
22
17
20
25
12
20
15
20
13
12
20
11
19
14
23
12
16
13
17
14
20
29
19
19
17
23
22
26
21
13
24
17
12
14
24
19
22
16
19
20
20
18
11
16
18
21
20
21
21
25
17
21
15
16
16
29
135
102
75
91
89
78
67
59
60
65
52
52
49
34
42
32
46
46
38
43
40
28
41
18
17
22
22
28
28
21
27
33
22
20
30
24
13
13
24
20
19
16
18
10
14
8
18
13
13
14
19
13
14
16
9
11
15
16
11
12
12
17
10
14
16
16
15
7
7
16
13
12
12
10
13
10
19
16
16
14
4
14
14
12
5
13
16
15
20
12
16
11
11
15
9
12
12
14
10
11
13
16
19
14
13
17
8
14
10
12
12
9
16
11
8
12
9
9
16
25
96
65
79
63
59
60
63
68
63
68
69
55
48
48
43
51
39
46
54
37
42
36
32
48
29
33
20
28
31
26
31
21
26
32
33
30
23
30
22
21
30
27
18
22
24
23
18
14
20
19
27
29
23
17
21
25
27
21
12
21
27
16
19
17
17
22
20
19
27
18
19
16
24
15
13
23
22
17
17
15
26
22
12
20
17
16
9
14
21
19
15
24
19
22
19
15
13
21
15
15
14
16
12
21
22
6
13
16
14
17
15
10
17
18
14
17
14
23
15
21
9
6
6
6
3
2
4
4
10
9
5
2
7
4
6
7
4
10
4
9
7
6
6
7
9
11
6
10
8
8
8
10
6
4
6
5
5
5
5
7
6
13
6
6
7
13
12
6
5
9
4
3
3
11
9
5
8
7
12
4
7
7
9
5
4
6
4
5
10
6
14
5
9
7
5
6
8
11
5
1
5
3
8
6
7
6
6
3
9
8
5
9
8
5
5
7
9
7
8
9
9
12
4
8
6
12
9
10
6
9
6
6
8
10
4
6
7
4
6
13
53
36
36
30
29
35
32
31
35
21
30
25
30
37
21
26
24
33
32
34
14
30
27
20
23
19
22
17
19
19
25
17
17
14
17
14
23
14
21
25
20
20
26
27
16
12
10
11
20
12
22
15
17
24
15
16
15
11
23
12
22
16
11
17
17
16
25
14
14
17
30
21
11
18
17
22
24
10
19
20
15
9
17
18
10
21
19
21
16
23
26
18
23
21
15
14
25
17
17
16
17
16
14
25
18
19
14
19
10
12
13
16
24
12
14
9
20
19
24
36
131
101
100
100
84
75
68
69
69
57
62
49
43
44
41
45
27
38
29
42
36
32
24
30
29
22
22
26
29
21
14
17
23
26
24
22
18
16
19
15
11
13
15
12
17
15
16
16
15
14
14
17
16
13
27
16
21
9
15
17
5
17
13
14
15
17
15
14
13
20
19
16
15
17
14
14
10
13
23
13
22
13
18
14
10
11
15
13
20
12
8
11
17
22
11
16
16
18
13
11
12
16
15
15
16
14
8
11
19
18
11
17
8
18
15
9
14
9
21
31
102
96
81
65
67
54
63
69
61
58
62
66
53
55
45
52
43
40
50
35
41
27
34
38
35
39
34
33
32
22
44
28
25
20
22
15
18
26
26
22
22
28
23
26
22
24
26
21
23
19
23
26
16
23
27
16
26
16
16
17
25
16
19
26
27
20
13
24
23
25
17
17
29
17
20
18
22
24
18
16
23
23
19
24
23
14
20
18
25
18
17
12
19
20
26
17
10
18
15
8
21
26
12
16
12
15
9
12
18
19
20
14
11
12
22
19
13
16
16
17
6
6
12
4
2
8
7
5
5
10
5
7
4
7
5
11
4
7
5
7
8
7
6
4
7
10
8
7
4
5
6
12
7
4
10
11
6
13
11
5
5
9
7
4
2
3
5
5
6
5
4
6
7
2
9
12
5
4
6
4
11
8
10
11
13
9
3
7
8
8
6
6
5
7
9
1
7
8
3
11
11
8
6
8
11
12
4
9
6
8
3
8
5
3
8
6
6
5
10
3
2
5
8
8
8
5
8
9
2
7
5
10
7
10
6
9
10
10
6
9
3
10
7
12
51
48
41
34
32
38
36
33
34
21
34
29
30
23
30
25
33
21
19
25
27
23
26
32
17
20
23
14
23
23
20
19
17
27
21
21
18
21
21
16
23
16
16
20
20
17
12
15
23
22
12
14
22
16
19
18
19
16
19
15
12
24
17
17
15
17
18
19
13
11
17
15
10
16
10
23
9
25
22
19
12
24
20
16
25
14
17
17
14
18
22
16
18
17
25
23
18
19
17
19
25
20
13
23
20
12
20
13
17
17
21
18
24
17
17
17
17
9
21
35
126
116
80
90
84
66
61
82
82
63
33
53
44
49
51
42
52
34
42
32
33
39
30
31
22
28
24
18
21
22
19
17
14
17
18
24
15
12
11
23
27
17
21
17
18
10
16
13
11
12
9
15
14
10
10
13
13
14
11
14
18
17
15
8
13
13
14
14
9
7
18
10
12
15
19
11
15
15
16
14
15
21
14
16
14
13
18
12
17
16
13
15
15
19
13
12
8
27
9
14
14
15
17
7
10
10
17
12
13
16
14
9
6
17
12
13
10
13
16
22
98
69
74
58
67
48
49
74
57
56
57
41
56
43
39
41
34
49
38
40
54
39
41
44
39
27
35
34
29
36
26
27
32
29
27
27
30
30
23
21
23
19
23
25
24
17
22
24
20
21
16
9
12
20
21
21
23
20
28
24
18
25
22
15
9
23
16
18
21
22
14
16
24
15
24
14
24
16
20
22
22
17
15
20
18
23
13
17
19
11
24
19
14
15
27
19
17
15
24
20
14
19
20
14
15
17
17
12
18
22
25
12
18
25
22
20
10
15
20
15
12
10
7
6
8
9
9
7
1
7
11
9
12
9
7
8
10
13
7
9
11
3
6
9
2
7
3
6
5
15
6
5
7
10
7
7
7
7
3
8
6
4
6
12
9
5
10
12
7
7
8
7
7
5
10
7
8
10
6
9
2
6
5
11
8
6
7
5
8
3
11
2
4
4
9
9
14
6
11
5
5
6
5
8
7
7
5
11
4
10
10
4
7
6
5
8
5
6
3
11
6
7
2
7
8
4
16
7
10
5
5
3
6
8
7
8
7
7
5
11
13
12
1
7
9
8
6
17
57
45
38
33
32
35
39
45
41
29
28
27
30
22
32
21
30
23
30
17
27
18
25
22
26
24
18
21
25
25
19
20
26
21
19
21
22
17
26
19
17
29
26
15
16
24
21
28
30
22
13
20
21
29
19
14
15
14
20
9
14
12
15
18
12
18
25
17
20
15
18
28
20
14
21
16
17
19
20
11
9
14
23
21
19
21
15
17
11
17
11
16
20
14
22
21
19
22
19
11
14
23
19
11
12
12
11
18
24
16
13
25
16
18
14
14
17
16
17
37
126
95
88
100
71
73
80
63
68
54
49
50
49
35
46
45
37
39
34
30
36
23
32
29
20
22
24
20
24
25
20
34
24
21
20
25
27
17
22
14
16
16
18
15
8
15
18
11
26
15
13
17
12
11
11
11
17
13
9
7
4
10
8
15
14
13
8
14
15
14
17
12
19
10
12
10
12
11
14
16
14
14
11
11
15
10
13
5
14
13
17
10
15
14
12
11
15
13
18
18
14
11
9
10
14
19
9
17
10
15
14
9
15
9
9
18
15
10
9
17
108
82
83
64
57
67
63
63
63
43
56
51
54
39
44
46
43
47
47
45
37
33
31
27
34
31
24
29
44
23
43
39
22
33
23
30
24
23
31
24
29
29
16
20
28
25
23
24
25
21
19
22
27
16
17
20
36
26
24
12
30
21
22
21
13
16
20
14
21
17
25
32
20
17
26
16
25
22
22
11
11
20
15
21
22
14
18
19
16
17
16
21
16
25
24
15
17
21
16
18
17
24
15
19
19
16
19
19
18
25
15
15
22
21
8
14
12
20
19
17
9
6
12
9
8
6
6
6
5
10
5
10
6
7
5
7
10
9
6
4
5
9
10
7
9
4
5
0
4
6
4
5
5
8
5
5
7
8
12
4
9
9
9
4
8
5
9
5
9
3
5
5
5
5
7
11
7
7
6
6
3
8
8
0
7
7
14
3
6
11
6
6
8
6
4
6
6
8
8
8
6
11
8
6
3
8
4
4
7
13
11
11
6
6
8
7
4
5
5
8
5
5
4
7
3
5
12
7
5
7
7
5
5
9
5
7
13
7
5
6
6
3
6
10
9
6
7
5
5
3
6
14
48
41
51
42
30
44
36
30
35
28
31
33
21
21
36
30
33
21
27
28
21
16
26
28
22
20
27
14
21
20
25
15
16
14
22
22
18
18
30
21
13
13
20
19
21
27
17
13
15
18
10
13
13
14
14
13
13
17
26
15
15
18
14
17
13
17
16
20
13
21
16
13
19
17
20
21
13
25
13
15
16
15
23
15
15
19
16
13
12
14
21
12
7
15
30
13
15
17
13
22
22
20
13
16
10
16
16
15
22
20
18
21
19
11
20
19
20
23
11
33
122
106
80
71
94
65
69
57
60
63
54
72
45
52
54
39
31
35
32
36
42
34
25
26
22
25
30
31
26
22
15
18
35
22
21
23
20
25
18
20
18
14
21
20
17
16
14
16
17
13
18
15
13
23
14
15
14
17
16
5
16
15
13
11
14
8
16
7
17
15
13
14
12
8
14
11
10
15
11
12
13
15
16
12
12
9
10
11
5
14
9
15
11
10
14
8
19
15
10
12
17
15
10
10
11
13
12
11
21
15
12
12
11
15
12
18
13
11
9
24
90
85
79
78
82
64
66
47
72
51
57
68
65
53
49
56
51
45
43
32
38
34
28
38
25
27
27
31
32
32
32
22
33
29
19
19
26
20
27
32
29
19
21
29
19
25
22
28
25
22
21
23
15
29
22
20
21
16
18
23
22
23
16
12
24
18
15
19
22
24
15
31
22
18
16
15
17
22
26
19
17
13
22
17
12
10
15
19
21
15
16
21
14
19
10
22
18
19
17
18
23
18
22
21
19
16
21
11
17
17
15
12
14
16
19
16
14
20
22
16
11
9
11
10
6
9
8
4
7
9
2
5
6
8
5
14
8
7
4
10
8
6
7
3
9
4
5
9
8
4
3
8
5
4
7
5
9
8
7
7
7
3
6
6
7
14
7
4
6
7
6
7
10
9
11
3
7
11
8
13
6
7
6
6
8
4
9
6
4
7
5
5
8
9
7
4
8
10
5
9
5
6
6
11
9
5
8
6
5
3
9
7
7
7
4
11
13
4
5
9
7
8
8
12
5
6
10
4
4
8
9
8
4
6
9
9
4
8
10
10
8
7
6
5
4
11
5
9
8
4
12
9
6
6
6
8
41
54
41
40
43
36
38
43
34
28
32
34
31
27
22
23
24
28
23
26
21
35
24
15
25
21
22
19
19
21
22
22
24
27
22
21
17
25
19
18
17
17
19
14
22
21
17
15
25
22
24
20
19
16
24
13
16
22
17
20
17
19
19
25
18
19
19
25
15
14
25
20
15
30
19
15
18
18
16
18
13
16
19
17
20
18
23
16
22
10
13
9
17
16
19
18
22
20
21
20
20
14
12
21
20
24
18
27
10
14
13
18
22
12
24
22
14
16
23
30
136
111
89
90
78
66
76
75
67
54
59
61
43
48
30
55
53
38
40
34
25
23
41
20
29
21
20
26
28
19
20
24
29
19
23
18
18
14
17
17
12
13
14
15
15
13
12
14
16
19
15
18
11
14
13
15
13
12
21
14
22
10
11
12
11
16
13
15
8
9
9
12
12
22
9
15
18
12
14
17
15
8
16
13
9
14
20
12
13
10
15
20
13
16
15
16
21
10
8
12
12
15
12
11
12
3
16
10
11
11
17
14
12
9
14
8
16
12
10
22
80
85
72
67
64
58
68
73
50
45
57
54
46
40
45
38
38
37
45
39
36
33
38
37
44
32
26
33
37
42
30
26
24
19
25
32
25
17
29
31
30
15
30
22
22
29
12
22
19
20
19
23
33
29
22
16
13
12
22
23
13
22
18
15
13
19
27
19
18
21
16
21
13
17
19
24
23
27
26
21
18
25
19
18
17
21
17
20
17
23
25
12
16
13
14
13
15
11
20
23
22
15
17
17
26
19
15
18
21
15
20
14
20
20
22
18
18
14
18
25
10
10
7
9
11
11
9
7
5
5
5
6
13
6
7
9
9
10
7
5
5
13
10
6
9
7
9
6
7
6
16
7
10
7
11
12
8
8
7
10
8
5
4
7
7
8
6
7
10
4
8
9
10
11
8
4
7
8
10
16
12
4
6
5
8
9
4
10
10
7
11
6
11
8
5
10
3
4
4
7
8
4
8
3
9
13
10
3
9
4
7
6
9
7
8
4
9
7
1
8
8
2
16
4
5
11
6
7
7
8
6
7
11
3
8
12
4
12
4
2
10
5
11
5
8
9
11
6
12
7
5
6
7
12
9
5
10
12
9
8
49
60
41
33
44
43
32
35
37
31
36
24
26
30
29
31
28
32
29
15
28
33
30
18
27
21
25
25
21
26
26
24
22
21
29
13
19
21
18
22
28
17
17
21
21
25
13
11
14
11
14
17
16
19
14
21
22
18
21
14
18
19
16
13
25
12
25
21
24
11
17
14
13
19
22
15
15
15
23
22
24
11
12
25
21
18
21
20
16
22
15
16
12
15
16
16
14
20
15
19
16
23
15
15
9
17
14
20
11
25
10
21
21
12
15
15
17
20
17
34
106
113
80
82
81
93
78
64
56
50
58
48
44
57
45
41
38
44
33
48
23
32
40
37
27
30
27
21
28
30
22
24
25
15
27
13
19
14
10
21
19
19
16
8
14
15
17
16
16
15
12
17
13
15
17
19
16
9
16
19
13
13
13
9
14
7
12
13
8
20
16
19
15
16
9
12
13
7
9
7
10
15
14
7
7
9
11
10
16
15
13
19
13
15
14
22
14
9
19
16
17
14
9
7
7
14
17
7
11
12
10
9
6
15
11
7
13
14
8
21
97
85
70
85
66
62
74
56
62
61
57
53
56
51
39
53
48
46
44
53
37
45
25
31
29
46
31
31
24
23
34
38
22
38
35
30
26
21
19
34
23
26
28
27
22
17
26
25
16
15
29
26
15
15
14
20
21
16
14
18
18
22
21
18
22
18
15
20
21
17
25
22
26
18
20
16
18
23
16
33
23
16
20
11
22
16
18
16
24
20
20
23
23
19
21
18
12
15
18
17
18
13
17
24
14
19
16
27
19
21
15
11
24
20
15
22
19
20
15
13
7
4
9
8
5
8
5
6
13
12
4
7
7
9
12
9
9
5
7
6
8
7
11
9
5
8
9
9
3
8
3
4
4
5
7
11
1
5
10
4
7
8
7
5
10
3
3
13
7
5
7
5
4
7
7
6
7
1
6
9
4
6
4
3
5
5
7
6
5
7
8
12
11
6
6
4
8
6
9
7
5
12
2
12
9
7
5
7
4
10
5
3
6
8
6
9
8
7
6
5
5
6
4
9
3
6
6
8
1
6
6
7
10
7
8
9
4
7
7
7
4
10
5
11
8
8
7
6
8
9
6
6
5
9
5
8
7
8
5
4
4
9
9
14
64
40
47
46
36
30
34
38
28
42
29
31
29
22
34
33
30
31
28
31
25
29
30
23
23
21
29
22
20
24
11
18
20
30
18
22
20
14
18
22
21
27
15
22
23
18
17
18
13
17
21
14
27
23
17
22
19
15
27
15
18
15
19
17
24
10
16
14
17
13
21
21
19
31
13
17
18
16
19
24
15
24
19
16
17
15
13
25
16
13
23
17
19
17
14
15
18
14
21
14
14
24
17
14
17
20
18
12
18
14
12
16
16
11
26
16
14
12
21
40
125
83
99
86
94
78
73
59
67
60
53
50
55
44
48
36
36
45
42
34
37
36
36
28
32
33
20
31
10
23
23
18
18
22
15
16
23
20
15
7
16
12
18
23
10
22
18
14
16
11
15
15
9
15
9
15
13
13
13
9
9
11
16
13
14
14
13
12
9
17
14
14
11
10
7
7
9
13
9
12
16
12
11
11
11
9
6
14
9
8
12
13
16
15
15
11
13
18
11
11
12
19
13
16
15
15
11
7
11
14
14
16
12
11
16
17
13
10
15
32
101
86
74
65
64
44
85
54
51
56
61
56
53
37
49
42
37
38
45
38
45
26
27
44
39
34
42
42
39
35
35
42
35
28
21
29
15
29
28
25
21
30
18
36
29
22
25
24
24
23
24
16
23
24
20
18
25
25
16
20
20
17
22
23
18
16
16
16
22
24
20
18
23
19
21
16
16
16
21
17
19
19
17
19
22
12
15
19
14
22
23
15
25
24
19
9
18
15
13
25
21
14
24
12
10
14
24
14
13
15
22
16
25
19
12
13
20
16
14
15
13
7
8
5
7
7
6
7
9
5
5
7
4
2
7
5
5
5
5
7
5
10
5
9
5
11
5
6
9
4
9
8
5
1
5
12
11
4
3
2
5
5
5
5
7
7
5
7
5
8
7
5
11
9
10
3
5
9
9
2
5
2
6
10
4
5
6
7
7
6
5
3
7
3
12
3
8
5
8
8
8
7
5
5
5
4
2
13
7
6
5
4
3
8
6
8
10
7
7
8
11
9
9
6
4
11
9
5
7
8
8
6
8
9
8
4
11
2
7
6
11
6
7
5
6
9
16
6
9
1
8
13
3
9
6
5
7
6
7
8
3
8
2
5
6
5
5
10
49
50
39
45
36
38
40
32
34
27
27
24
45
31
24
22
28
30
19
23
29
19
28
23
33
17
24
21
35
18
18
17
26
21
27
19
38
14
20
19
14
15
23
14
18
21
26
20
18
20
13
18
16
13
17
9
25
18
10
21
21
20
19
19
20
18
17
15
20
16
13
15
17
14
17
20
22
10
20
14
21
17
18
15
22
19
22
18
17
17
10
22
20
14
18
20
22
21
18
19
16
17
21
17
18
19
18
18
12
15
15
17
21
22
15
13
12
22
16
47
115
92
83
96
96
73
73
61
72
62
50
48
46
47
33
46
39
46
41
46
30
37
34
40
24
20
28
25
26
14
22
19
24
23
24
20
20
29
18
9
18
12
22
15
15
17
13
23
19
15
13
13
18
16
16
12
13
13
17
10
16
15
14
14
14
16
8
20
13
11
23
10
7
13
13
16
10
15
15
8
6
15
14
19
12
11
16
13
15
13
15
8
8
9
16
13
10
13
17
16
19
16
9
19
12
12
28
13
12
15
7
12
11
9
15
11
13
16
8
29
117
79
72
73
64
68
57
58
50
54
54
58
50
47
45
39
46
44
47
39
49
41
33
47
31
36
32
29
22
29
30
31
27
17
23
31
36
28
29
22
33
32
31
27
17
18
25
29
18
20
14
8
21
18
25
15
19
20
26
20
16
14
22
25
22
20
17
20
22
14
23
18
16
16
17
19
24
17
18
19
11
16
13
22
14
10
18
15
19
14
20
25
22
20
15
21
31
17
21
21
25
16
21
14
30
17
17
24
16
24
18
22
19
17
19
17
11
19
12
14
5
8
8
7
7
9
5
5
9
8
5
6
4
3
3
11
9
1
12
12
10
13
5
3
8
7
6
7
7
8
4
8
4
9
5
12
7
3
3
4
4
10
3
12
12
5
2
9
7
4
5
9
9
8
2
12
8
11
6
7
6
10
9
9
10
10
3
5
6
11
7
7
8
5
7
9
12
9
13
7
5
10
6
4
6
5
7
4
9
5
10
3
2
9
6
5
6
3
6
7
8
12
9
5
4
8
3
4
10
4
12
10
3
6
10
5
5
4
8
6
3
6
7
5
5
6
1
9
7
5
5
10
5
6
11
5
4
4
10
11
10
10
7
11
5
10
9
7
9
3
5
6
55
47
47
38
31
26
44
44
34
44
39
32
32
33
33
39
40
28
34
33
26
24
12
26
26
29
16
20
16
26
22
25
22
24
26
18
19
23
21
15
22
15
27
18
21
18
19
22
17
13
22
13
21
20
15
14
20
18
13
21
20
23
26
16
18
18
17
20
20
15
16
27
13
16
13
16
22
18
13
27
22
18
18
12
19
20
12
19
11
25
23
15
21
17
10
17
17
14
21
21
19
11
15
18
12
16
21
20
14
16
23
15
22
16
20
16
25
18
12
33
133
102
104
87
72
85
69
61
60
55
66
57
51
50
44
37
43
40
31
35
33
37
34
28
30
21
31
24
19
21
23
22
18
22
18
20
17
13
11
20
19
13
14
21
12
13
17
14
20
16
6
11
11
13
20
13
13
15
13
11
13
12
16
8
20
16
16
9
16
15
16
11
13
15
16
11
17
16
8
13
16
2
9
10
13
12
15
11
14
15
16
15
9
10
17
15
13
11
13
16
10
8
16
14
8
13
12
9
10
10
15
11
16
11
9
6
11
10
10
32
105
74
85
73
81
75
70
53
50
65
61
46
52
36
54
43
44
43
44
40
39
40
23
34
37
36
32
39
24
25
33
25
35
25
25
25
28
20
13
22
24
16
20
26
23
28
32
14
27
25
19
22
15
22
16
16
27
19
19
25
19
13
26
20
16
19
22
15
17
25
18
15
16
17
13
19
19
22
24
23
23
22
25
21
25
12
24
15
13
27
20
18
22
17
16
15
11
22
15
20
16
18
9
21
14
17
17
17
20
24
23
18
16
18
21
22
18
17
20
15
8
13
8
5
6
9
10
7
11
6
5
7
6
8
7
5
6
8
10
8
5
8
4
7
12
5
9
5
5
7
5
9
11
6
6
5
6
3
4
4
9
4
6
6
4
1
10
7
2
1
7
9
4
10
8
5
5
8
8
5
6
5
9
14
10
7
6
8
5
9
8
4
6
4
14
8
5
6
10
4
13
6
7
7
5
4
10
3
6
8
10
11
5
7
10
6
6
3
8
10
6
7
6
5
11
9
11
6
7
4
8
7
7
7
9
7
7
7
6
4
6
5
10
9
9
10
6
9
8
1
10
10
9
7
3
6
3
5
5
8
4
5
6
7
6
10
6
8
9
6
12
7
11
11
5
12
52
45
38
41
29
36
30
28
32
34
33
29
42
38
31
31
32
22
25
27
27
38
21
23
22
27
22
23
32
27
30
20
30
11
20
18
26
17
17
22
17
14
25
20
22
21
28
22
26
22
19
22
19
17
16
21
10
13
16
13
22
11
17
15
9
21
16
15
18
15
19
31
18
14
21
18
28
18
20
14
14
21
28
10
29
21
10
18
6
21
14
20
16
18
15
12
20
18
22
16
21
15
18
23
17
15
17
20
10
24
17
18
16
20
15
13
20
14
29
21
12
0
7
8
5
9
7
5
9
8
5
8
6
5
4
3
3
5
2
4
7
6
5
8
5
4
11
5
4
5
5
7
8
5
10
3
9
7
4
6
5
6
8
4
6
4
7
8
6
9
6
2
3
4
4
7
7
4
3
9
6
6
6
2
6
7
1
5
11
6
3
11
6
4
5
1
5
6
4
6
9
7
5
1
6
3
6
4
5
5
7
7
4
5
5
3
10
4
5
4
7
3
1
2
5
3
4
5
6
8
9
4
2
5
3
11
7
2
5
7
9
5
6
7
5
4
6
2
5
3
6
4
5
5
8
6
3
5
7
7
6
5
7
4
3
5
6
5
6
6
9
2
3
5
7
2
7
4
9
6
6
6
6
4
4
5
6
4
7
8
1
4
7
2
4
6
3
6
5
0
8
4
4
6
7
5
9
5
