#Saved Data from the class pulsed_measurement_logic on 18.11.2022 at 11h05m55s.
#
#Parameters:
#===========
#
#bin width (s): 1.0000000000000000e-08
#record length (s): 1.0030000000000001e-05
#gated counting: False
#Number of laser pulses: 2
#alternating: False
#Controlled variable: [2e-06]
#
#Data:
#=====
#Signal(counts)
0
1
0
1
2
0
2
1
1
3
0
0
0
0
0
1
0
0
1
0
2
0
0
4
23
65
40
50
44
52
55
51
48
50
43
48
55
30
28
29
36
28
23
26
21
31
39
25
31
22
33
23
25
24
22
21
18
22
18
21
21
23
20
17
21
21
18
19
14
13
23
17
17
17
13
14
24
14
15
21
13
17
8
17
17
13
11
13
11
18
19
14
21
15
13
16
15
11
14
10
14
8
23
14
13
17
13
15
18
18
8
10
15
10
11
15
18
16
21
13
14
12
16
12
13
16
14
24
19
13
12
17
13
20
17
23
16
18
13
12
13
10
14
15
14
19
9
18
12
23
14
16
9
14
12
11
15
16
14
15
12
14
11
10
16
18
17
21
11
13
11
17
15
7
14
13
12
14
15
17
14
12
18
16
16
7
15
11
27
16
18
18
15
10
18
13
22
19
17
15
15
17
15
16
14
10
14
10
17
15
13
12
12
20
17
17
19
24
14
10
12
17
11
21
17
4
1
0
0
0
1
0
2
0
0
1
2
1
0
1
0
1
0
0
0
1
1
1
0
1
2
0
1
3
2
1
2
1
1
2
0
1
0
1
1
1
0
0
0
0
1
0
0
0
2
1
2
2
0
0
0
1
0
0
1
0
2
0
1
2
1
0
0
0
0
1
2
0
0
1
0
1
2
0
1
2
0
0
0
2
0
0
0
2
2
0
0
0
1
0
0
0
2
0
0
0
1
0
0
0
1
1
1
1
0
0
1
0
1
0
0
0
1
0
0
1
1
0
0
0
1
0
0
0
2
1
2
0
1
0
2
0
1
0
0
2
1
0
1
0
1
0
1
1
0
0
2
2
1
0
0
0
1
1
1
0
2
1
0
0
1
1
1
0
0
1
1
1
0
0
0
0
0
0
0
1
2
1
1
0
0
0
2
0
0
1
1
0
0
1
0
0
0
1
0
2
35
55
55
58
49
41
47
51
38
56
43
36
42
31
41
36
22
40
27
26
20
24
19
27
24
28
22
27
21
26
23
24
21
18
17
28
22
20
22
17
15
11
23
23
16
19
19
13
18
13
19
18
18
8
18
13
15
4
12
18
22
19
14
16
19
12
10
14
17
15
14
17
18
17
25
13
15
12
15
23
11
10
18
14
8
11
16
15
7
12
21
13
9
15
15
14
15
18
10
14
20
12
10
18
15
12
18
16
14
13
8
16
14
16
14
9
18
16
11
18
15
12
19
20
11
11
14
17
14
13
16
12
12
12
19
16
12
20
17
12
19
12
15
9
12
14
9
24
7
11
15
17
11
17
16
19
16
13
10
9
18
20
16
13
15
9
17
7
14
11
9
14
19
15
14
10
16
14
12
17
16
11
11
15
10
15
11
17
17
14
20
21
18
12
18
19
9
15
12
1
0
1
2
1
1
0
1
0
0
1
1
3
1
2
1
0
0
2
0
1
0
0
3
1
3
0
3
4
2
0
0
0
0
0
0
0
0
2
0
1
0
0
0
0
1
1
0
0
1
0
1
0
2
3
1
1
0
1
0
1
1
1
0
1
0
0
0
0
0
0
0
1
0
2
0
1
2
0
0
0
1
0
2
0
1
1
0
0
0
3
0
0
2
2
1
1
1
0
0
0
0
0
1
0
0
2
0
1
0
1
1
0
0
2
0
1
1
1
1
1
0
0
0
1
0
1
1
0
1
4
0
0
2
0
1
0
1
0
0
0
0
0
0
1
2
0
0
1
1
1
1
1
0
0
1
0
0
2
0
0
0
3
0
0
1
1
2
0
1
0
1
0
1
1
0
0
1
1
0
1
0
0
0
0
1
1
1
0
0
0
1
0
1
0
2
1
0
0
1
0
0
1
0
1
1
1
0
0
0
0
1
0
0
0
0
0
0
0
1
1
1
0
0
0
1
2
0
0
1
0
0
1
0
1
2
0
0
1
0
0
0
1
1
0
0
1
1
2
0
0
0
1
0
1
0
1
0
1
1
2
0
0
0
0
0
4
1
1
0
0
0
0
0
0
0
1
1
0
1
0
0
2
1
0
0
1
1
0
1
0
0
1
0
1
0
1
0
0
0
0
0
1
1
1
0
1
1
0
1
0
1
0
0
1
2
0
0
0
2
1
0
0
1
0
0
0
0
1
1
0
0
1
0
1
1
1
1
0
1
1
1
0
0
0
1
0
0
2
2
0
0
1
2
2
0
2
0
0
0
1
1
1
0
0
1
1
0
0
1
0
2
0
0
1
0
1
0
