#Saved Data from the class pulsed_measurement_logic on 18.11.2022 at 17h20m00s.
#
#Parameters:
#===========
#
#bin width (s): 5.0000000000000001e-09
#record length (s): 8.6824999999999996e-05
#gated counting: False
#Number of laser pulses: 156
#alternating: False
#Controlled variable: [2e-08, 4e-08, 6.000000000000001e-08, 8e-08, 1e-07, 1.2e-07, 1.4e-07, 1.6e-07, 1.8e-07, 2e-07, 2.1999999999999998e-07, 2.4000000000000003e-07, 2.6000000000000005e-07, 2.8e-07, 3.0000000000000004e-07, 3.2e-07, 3.4000000000000003e-07, 3.6000000000000005e-07, 3.8e-07, 4.0000000000000003e-07, 4.2e-07, 4.4e-07, 4.6000000000000004e-07, 4.8e-07, 5.000000000000001e-07, 5.2e-07, 5.4e-07, 5.6e-07, 5.800000000000001e-07, 6.000000000000001e-07, 6.2e-07, 6.4e-07, 6.6e-07, 6.800000000000001e-07, 7.000000000000001e-07, 7.2e-07, 7.4e-07, 7.6e-07, 7.8e-07]
#
#Data:
#=====
#Signal(counts)
8
7
13
9
8
12
10
8
10
9
12
14
7
13
16
9
24
88
62
69
56
68
67
65
51
49
45
40
42
47
52
51
38
43
31
39
38
35
34
38
37
27
29
42
33
30
33
29
31
17
29
26
19
23
31
29
25
28
25
23
25
26
26
22
36
22
17
24
26
17
23
22
19
26
21
22
28
18
25
26
18
20
23
19
32
23
25
16
18
25
30
18
26
22
26
20
21
26
18
15
24
18
22
18
24
26
16
26
19
24
23
20
27
29
19
18
16
26
17
17
19
24
17
23
18
21
16
20
34
21
14
21
27
22
29
28
54
143
126
114
125
105
113
125
121
117
98
77
92
72
63
52
71
60
60
66
66
81
58
59
67
59
57
52
58
50
49
50
45
62
35
46
38
57
49
56
43
41
50
34
38
39
36
40
42
40
45
41
33
27
35
44
38
24
30
28
46
34
31
49
32
36
30
27
33
41
24
31
33
39
40
37
27
40
34
21
42
37
23
21
37
40
34
29
30
37
25
25
36
34
29
35
36
43
30
35
45
39
36
29
30
28
41
35
34
42
33
34
33
29
26
33
35
27
38
30
24
14
17
18
18
54
43
32
39
38
43
40
34
39
25
25
38
29
40
33
40
25
32
33
36
28
33
26
44
29
32
21
32
42
39
31
39
42
33
38
39
34
29
43
29
31
37
25
19
31
33
40
34
35
35
36
38
40
40
33
35
25
29
26
26
38
31
27
24
28
43
29
29
22
24
39
35
30
31
29
27
31
22
36
35
37
31
29
28
38
37
40
39
35
28
28
26
35
29
33
29
29
32
35
39
34
30
27
33
46
36
28
33
35
34
44
31
32
31
35
29
28
31
36
58
139
124
118
94
98
95
90
87
98
72
66
86
83
64
69
55
55
54
52
51
42
50
37
51
49
47
42
53
34
43
45
37
26
39
35
31
36
22
44
36
26
38
24
15
35
30
29
25
24
24
12
22
29
33
24
25
18
21
22
21
35
28
23
26
27
20
23
20
29
29
23
27
18
23
18
27
29
22
18
23
18
19
25
22
13
13
17
23
14
21
19
23
23
22
22
19
18
16
23
26
21
18
23
23
24
19
19
14
29
16
18
16
18
13
24
20
19
16
24
52
154
125
113
127
111
116
111
91
81
99
94
77
93
92
84
91
70
54
74
64
61
43
51
72
47
59
58
52
42
51
49
50
37
54
37
46
41
45
46
44
36
40
36
43
47
41
37
42
39
35
51
37
32
28
32
37
38
30
36
32
46
28
46
38
23
26
30
38
37
41
30
37
32
26
39
46
37
43
48
38
45
40
37
29
36
42
42
33
32
31
38
33
29
26
38
42
30
28
31
28
40
33
35
37
31
27
28
25
32
48
27
28
32
35
31
26
41
40
39
34
9
16
13
10
12
14
17
23
42
33
32
32
37
40
35
36
38
43
29
38
33
38
44
43
38
33
34
43
34
39
42
32
35
35
30
27
28
29
31
33
29
28
34
24
42
32
35
30
34
36
35
35
35
41
21
23
33
41
33
29
23
34
30
43
43
33
27
25
36
27
29
22
30
32
28
32
34
31
33
46
26
36
38
41
28
26
25
39
32
33
24
31
28
35
37
27
38
29
26
38
35
34
21
33
28
22
33
38
36
33
38
40
33
33
29
21
33
37
33
23
33
46
25
32
26
39
36
54
131
121
117
103
90
91
77
72
86
75
66
81
71
70
74
57
59
53
63
66
53
51
42
47
46
42
45
43
35
49
32
33
38
39
27
34
37
38
39
22
31
40
26
32
24
35
28
30
27
29
21
26
32
28
26
31
22
25
26
30
16
22
25
17
15
29
20
35
16
22
21
21
29
21
25
18
20
17
18
21
18
25
20
24
24
27
33
23
20
18
12
31
21
28
30
35
28
23
18
25
20
24
19
31
16
18
20
19
21
19
22
30
19
24
20
22
16
20
20
54
166
143
129
125
112
117
99
100
102
92
83
70
83
85
78
83
81
64
74
74
70
60
61
54
51
51
44
40
47
43
53
42
44
41
37
40
45
36
37
48
28
34
39
38
30
38
37
41
31
40
25
37
30
35
40
40
34
38
29
31
27
46
32
27
34
34
28
38
35
39
34
25
39
35
37
35
35
36
48
33
36
44
27
41
51
40
37
34
33
27
25
28
27
37
35
35
33
28
33
42
29
28
37
30
38
46
44
31
24
31
33
25
30
26
40
24
37
31
24
28
17
18
13
16
8
18
16
17
18
22
6
17
46
42
42
31
32
36
42
33
36
28
33
43
36
27
36
35
32
30
35
23
38
34
42
32
38
28
23
36
40
28
38
29
38
20
26
38
23
21
41
34
33
28
27
32
41
30
24
28
25
35
32
33
31
27
30
28
25
40
39
35
37
25
31
39
32
29
28
26
34
32
30
39
40
35
34
30
38
34
45
29
39
33
17
30
29
25
20
35
40
33
36
33
25
27
28
33
19
20
26
28
31
32
22
33
37
28
21
27
33
45
41
34
25
33
30
38
20
30
40
45
147
121
124
114
102
81
85
79
78
78
69
86
70
61
52
57
53
57
58
47
52
52
44
48
48
42
43
39
50
41
33
33
31
26
29
34
33
25
30
32
27
38
30
34
31
34
25
26
16
26
26
25
20
22
25
23
28
26
24
17
27
30
27
31
14
16
22
15
12
20
19
22
17
16
20
22
18
23
19
33
26
22
17
17
29
15
17
16
14
19
21
24
17
25
27
22
21
28
23
24
27
21
31
19
22
17
20
25
25
14
19
16
25
24
24
23
20
33
22
62
149
127
151
121
115
123
107
106
115
64
105
88
79
63
70
71
80
63
59
62
64
63
69
52
42
48
52
61
36
46
45
38
46
55
42
35
39
33
37
51
48
43
39
34
36
36
42
26
49
31
38
45
37
31
30
31
39
33
30
42
31
34
38
35
31
26
29
29
38
25
35
37
32
34
26
42
33
29
33
35
30
34
34
24
29
31
37
29
21
33
36
37
33
29
31
25
24
35
28
31
38
37
35
36
28
38
33
30
26
39
34
27
35
27
39
28
32
34
40
27
23
11
2
9
19
18
12
11
25
13
11
14
18
16
16
24
42
32
50
38
55
35
33
43
34
33
30
42
42
37
40
38
46
36
39
40
37
29
34
36
44
35
28
31
44
42
34
21
40
27
30
25
26
25
40
40
40
23
33
35
36
32
38
47
27
35
35
39
25
21
28
31
20
34
36
30
27
33
36
32
36
30
34
32
26
36
31
31
33
24
36
31
30
37
36
34
35
37
19
34
32
38
30
23
32
34
20
37
28
30
32
23
41
22
36
32
36
32
26
36
34
39
27
38
32
35
35
35
21
32
31
27
40
32
33
61
155
119
115
98
104
96
71
83
77
83
74
76
62
73
70
63
58
56
59
66
58
42
51
35
40
43
47
33
35
32
29
29
37
35
36
33
33
39
24
26
21
25
24
16
32
24
29
28
26
31
26
23
30
24
26
28
22
32
25
25
28
25
20
17
24
32
24
22
18
19
15
18
25
20
21
25
19
32
32
19
24
22
22
19
23
18
21
23
22
12
20
27
27
22
19
24
17
20
21
29
19
29
16
20
17
26
18
19
22
24
19
20
26
12
18
14
17
22
17
41
173
153
128
107
127
96
115
97
89
99
103
72
84
79
94
67
65
65
65
65
54
60
71
55
52
52
59
48
51
60
60
49
45
55
53
35
43
32
39
43
40
39
29
34
41
36
47
51
34
37
29
35
45
28
35
35
37
31
35
27
27
35
31
36
37
40
34
28
32
32
40
38
26
27
16
28
31
38
30
33
32
30
38
34
31
37
31
30
36
29
36
34
30
26
39
26
40
28
37
30
33
26
30
31
28
32
27
33
33
33
40
36
31
28
27
28
26
34
32
35
21
18
11
12
14
15
13
16
14
13
11
10
15
12
15
16
17
16
13
15
50
50
48
41
47
39
40
40
40
31
27
37
40
37
54
40
40
31
29
42
41
25
43
33
41
30
34
28
35
32
25
29
41
46
25
35
38
29
32
33
28
34
29
38
29
29
40
41
30
35
27
34
27
34
30
23
24
36
33
32
40
32
26
40
37
33
28
34
32
35
38
37
33
24
28
23
33
28
34
35
30
30
24
33
31
30
25
36
31
24
35
33
21
32
32
28
31
37
33
27
32
25
35
38
37
29
29
33
28
28
32
30
28
28
33
23
35
29
35
68
147
104
118
96
111
99
120
82
74
80
79
79
75
63
63
48
60
73
59
61
49
30
55
42
43
53
48
38
42
32
39
49
29
41
39
23
42
35
24
27
32
31
37
30
32
28
34
28
37
17
27
22
27
22
29
40
27
15
19
29
17
16
27
26
26
20
13
22
18
30
31
18
24
28
21
13
23
23
20
26
24
27
22
26
19
24
22
14
11
26
19
21
22
20
21
21
21
15
20
21
16
21
21
21
30
18
25
28
25
18
16
20
12
21
20
27
19
27
23
48
178
133
138
112
120
99
97
98
106
110
64
91
98
75
88
75
64
73
58
71
54
58
43
66
61
58
49
46
41
43
48
51
50
42
45
46
46
39
43
47
49
44
40
34
44
48
42
30
28
40
32
39
39
36
29
28
39
41
40
23
34
30
27
47
26
28
36
36
31
26
48
37
19
33
39
42
37
34
32
34
44
30
37
37
31
38
36
32
21
28
21
31
25
36
26
25
38
29
24
28
31
42
32
29
27
31
34
38
40
23
35
29
41
23
35
32
33
25
41
32
17
12
21
10
22
15
9
15
16
14
11
14
9
11
6
10
12
19
18
15
19
7
15
26
42
38
46
38
37
50
45
35
36
45
44
34
29
47
41
37
32
27
34
39
35
40
32
21
36
35
35
31
26
35
32
37
32
22
31
24
37
26
32
37
45
39
32
37
27
26
40
32
33
26
32
41
42
26
45
24
18
38
28
32
34
33
20
29
28
41
32
33
30
39
34
22
25
35
39
34
37
39
31
35
27
36
21
36
34
24
40
26
30
21
30
26
27
19
30
32
40
28
26
29
29
30
23
29
26
25
22
28
37
39
41
26
31
26
32
31
24
37
32
59
147
133
116
102
108
78
102
82
78
83
66
71
69
69
63
59
75
63
50
55
38
48
47
48
30
37
36
41
28
36
42
41
38
34
33
36
27
25
44
35
40
17
25
33
22
28
30
26
38
17
22
16
20
28
21
24
24
32
28
22
24
22
28
14
22
21
31
29
14
22
24
23
27
24
27
28
23
23
20
20
24
22
20
22
26
18
23
24
20
20
26
21
22
23
13
17
24
23
26
15
24
19
25
13
16
10
32
23
22
28
19
19
28
18
23
19
16
28
23
49
155
136
130
129
131
123
124
103
100
105
90
85
74
83
73
75
66
81
75
53
68
57
45
57
62
46
43
70
59
51
53
30
34
42
35
45
51
38
38
49
44
45
40
23
36
34
45
43
30
36
26
62
33
37
37
30
38
29
32
24
33
33
31
29
34
35
51
32
27
29
30
19
32
31
32
40
35
30
39
35
30
36
27
26
33
27
34
33
29
25
37
33
34
22
30
24
37
26
34
32
35
29
36
30
30
27
38
32
34
32
39
35
29
34
24
31
32
28
37
33
15
9
7
15
20
14
11
9
14
19
8
15
9
8
15
21
11
17
7
12
14
15
13
18
21
13
18
21
55
44
43
47
55
50
40
49
41
46
40
32
45
34
36
44
38
32
49
35
35
33
41
34
43
28
38
38
28
33
32
34
27
33
32
31
32
43
36
42
35
31
39
29
44
30
23
41
31
36
32
27
24
47
37
38
24
28
30
35
41
26
27
31
36
30
28
29
33
39
21
26
38
19
28
30
32
31
39
31
33
29
41
45
27
29
39
35
28
39
29
37
24
26
29
29
36
39
22
34
26
28
35
36
32
25
39
31
32
30
40
22
36
37
30
30
38
26
30
59
132
122
115
115
93
96
103
87
95
81
68
88
53
77
68
60
70
49
62
44
52
42
36
41
51
43
36
36
41
44
44
36
34
31
35
28
29
27
31
33
21
36
29
25
31
30
37
32
34
30
22
25
33
24
21
16
28
26
37
22
36
25
16
29
27
27
19
21
20
25
30
32
30
25
22
26
28
18
19
26
22
22
18
26
21
30
28
13
26
18
21
22
21
18
20
24
21
13
23
28
30
19
26
26
24
13
20
22
14
18
25
20
27
16
17
16
23
14
24
53
151
140
115
132
112
126
97
109
92
93
105
74
80
91
69
66
75
70
66
61
53
73
62
56
54
61
52
55
58
47
57
56
33
42
52
38
40
32
47
38
40
54
37
53
39
43
33
48
36
42
27
38
37
32
32
25
38
41
45
32
47
33
35
29
29
26
30
19
29
26
27
31
36
32
33
33
33
39
41
29
42
34
40
34
30
34
38
37
30
33
43
30
30
28
37
30
27
26
28
29
27
37
34
35
35
37
35
36
43
35
38
25
34
35
33
31
30
34
33
24
14
19
5
8
15
11
9
11
15
14
13
16
19
13
18
21
12
15
15
16
16
8
8
11
14
8
19
9
12
14
11
19
44
55
45
45
39
38
46
31
45
50
49
49
36
45
39
31
35
38
45
38
38
37
32
42
52
43
40
33
40
29
24
23
32
43
32
46
38
38
34
31
28
27
25
44
27
33
22
38
40
35
47
26
34
25
48
28
34
30
38
25
33
34
26
37
32
35
25
42
37
31
34
22
24
34
26
31
30
41
27
32
23
29
27
23
42
26
28
23
30
28
32
23
34
43
27
37
32
30
28
36
41
28
24
42
37
15
24
23
28
29
32
34
27
38
32
30
25
38
25
61
146
141
113
108
112
96
83
94
68
73
68
79
76
63
71
56
50
67
63
60
49
62
40
59
41
41
36
34
43
34
35
38
46
50
33
29
32
32
23
34
29
26
31
40
30
38
22
33
33
33
24
18
23
30
29
24
22
26
23
25
21
20
17
18
22
32
28
21
27
12
22
32
24
17
23
13
23
27
26
23
25
23
18
25
19
17
17
20
33
18
25
24
32
20
19
29
15
23
21
15
24
23
20
28
18
26
18
24
21
24
25
19
27
22
19
22
17
18
26
54
143
132
141
109
137
117
102
94
108
89
92
80
81
68
76
63
80
82
64
64
80
59
46
55
46
44
57
48
56
57
38
44
40
46
51
48
44
41
40
21
36
42
44
48
44
42
38
45
34
40
42
31
41
42
41
28
40
27
27
35
39
25
31
26
37
36
44
36
35
30
29
27
45
39
38
32
34
35
48
33
36
25
31
30
38
37
36
32
26
35
30
34
28
35
34
17
44
32
29
29
33
29
40
39
29
28
41
31
35
43
28
28
28
29
29
31
31
28
39
26
12
10
12
10
10
17
12
17
19
17
13
18
9
15
7
13
14
10
11
18
16
12
12
14
22
16
16
16
12
11
17
9
22
11
9
17
54
44
61
55
50
44
53
34
45
40
46
44
31
48
42
32
47
36
35
37
34
38
42
39
46
33
36
36
41
38
30
35
33
38
26
43
34
27
33
30
38
25
22
33
31
36
31
41
28
30
34
35
37
26
29
26
28
27
30
34
25
38
41
29
39
35
42
39
31
28
36
34
25
34
24
28
37
23
30
27
32
28
42
30
30
35
36
27
37
23
24
37
27
31
36
28
33
29
34
25
30
31
29
26
34
30
35
37
34
27
29
29
32
30
35
38
37
23
24
65
148
141
106
83
93
95
91
82
95
80
74
68
72
83
58
54
69
56
48
51
47
54
38
45
49
45
46
42
42
32
29
31
33
36
39
28
29
33
33
29
24
29
19
31
22
23
23
20
22
21
28
30
21
31
26
37
21
31
21
19
25
29
23
20
21
23
24
18
25
26
28
23
19
18
25
25
19
21
26
24
24
22
21
19
24
23
25
22
17
19
27
24
23
20
21
16
25
16
20
21
31
28
23
14
16
19
23
21
26
26
16
19
21
23
15
25
18
34
16
46
154
135
117
125
106
93
144
110
101
79
86
90
78
84
63
82
78
49
84
63
54
68
50
42
48
48
54
52
52
44
55
44
50
35
39
49
46
49
48
39
40
39
29
43
38
35
34
31
31
40
42
32
39
36
41
41
38
33
35
24
33
35
48
42
34
26
34
41
38
28
30
24
37
30
25
28
31
33
40
24
29
31
33
43
31
30
22
32
47
27
39
34
32
28
29
33
34
30
30
31
30
31
29
32
32
26
17
35
46
29
34
21
31
26
37
29
38
31
31
36
13
13
9
10
11
19
11
15
11
14
16
17
14
10
13
21
9
8
11
10
14
9
9
13
5
7
19
13
12
11
10
7
10
18
20
22
17
11
12
18
60
35
48
50
57
36
43
39
46
39
54
48
44
51
33
44
46
34
48
22
48
28
39
29
38
32
39
41
29
32
30
38
36
33
32
32
36
24
28
29
42
38
43
36
30
34
37
31
32
33
28
31
28
29
35
47
33
35
24
36
30
34
27
32
37
25
33
33
21
25
35
40
24
40
31
38
31
35
31
29
39
37
41
30
31
35
33
27
37
35
27
21
30
26
35
44
44
23
31
36
29
37
29
26
27
34
33
22
36
33
40
28
30
37
30
21
29
30
35
66
133
104
136
107
108
98
119
108
87
79
72
71
74
67
64
56
69
53
57
58
55
48
42
41
54
48
46
48
37
41
43
32
40
35
39
29
37
32
35
24
29
31
19
39
26
30
17
24
25
33
35
22
24
32
27
35
24
32
19
18
34
17
22
28
18
27
22
29
17
18
26
20
21
26
15
22
24
21
28
20
23
28
28
40
25
19
15
16
21
30
22
25
24
14
32
27
23
12
22
19
28
24
20
20
17
16
23
26
24
23
20
20
27
29
23
29
22
21
16
53
154
142
126
112
109
138
100
98
116
85
103
82
89
81
77
67
69
57
70
62
66
59
57
53
52
53
57
47
45
46
47
55
46
48
45
59
53
42
38
49
44
48
45
39
38
39
46
38
34
31
44
45
38
26
31
33
42
37
32
33
18
38
27
32
27
29
35
26
31
32
27
49
33
39
43
38
34
26
34
41
26
36
31
37
34
32
23
32
30
29
36
29
33
39
29
24
25
44
37
35
27
35
28
25
36
40
26
30
25
28
32
30
29
33
27
35
26
31
29
37
22
11
6
21
6
11
11
13
14
15
12
14
20
7
19
15
6
14
18
12
14
15
8
12
8
9
15
17
12
12
11
12
26
8
17
11
10
16
17
13
14
19
13
23
54
61
65
57
49
51
50
52
40
46
49
47
36
48
53
54
39
44
52
32
42
43
43
29
42
41
35
34
39
38
45
28
27
31
39
46
30
42
38
33
35
27
37
38
33
33
39
29
42
31
43
33
36
36
29
38
45
28
32
27
24
28
29
20
30
33
28
34
34
32
34
49
25
28
31
18
35
38
28
43
37
37
22
36
38
25
29
38
46
36
28
29
34
31
27
35
37
28
24
29
34
27
30
30
19
31
31
36
35
38
32
37
29
34
35
19
31
46
26
75
173
136
121
115
97
87
91
80
65
79
91
80
85
71
52
62
61
63
57
66
57
51
45
36
45
37
37
45
39
39
46
34
35
40
33
23
39
29
38
34
33
26
40
33
23
29
27
32
40
28
27
18
19
21
26
27
23
25
29
30
24
23
15
13
22
21
22
32
23
23
18
19
20
27
25
9
21
21
16
20
23
26
25
21
24
25
30
26
21
13
17
30
20
23
21
20
24
20
22
18
17
22
25
16
22
20
19
21
19
19
32
15
19
21
23
23
22
21
18
46
185
135
144
128
108
103
114
78
99
86
97
88
94
83
79
84
68
71
58
62
59
62
49
54
61
50
53
52
44
52
42
53
52
41
38
47
39
45
29
32
31
34
53
40
41
42
37
48
36
34
40
44
36
39
46
32
26
29
24
22
45
39
31
32
33
39
30
40
34
35
29
26
37
46
30
38
26
29
26
30
35
30
27
28
17
32
35
27
35
31
39
43
39
34
34
31
29
36
37
27
36
29
28
33
28
25
25
25
34
39
34
35
34
33
30
26
28
26
37
26
16
10
16
16
7
12
14
19
17
12
14
12
12
13
13
8
9
18
13
17
7
19
14
19
12
11
21
5
14
13
13
15
17
18
10
16
16
15
13
14
12
13
17
16
20
15
12
19
65
58
48
56
64
56
37
38
45
44
47
37
42
49
40
55
43
32
34
46
50
39
32
30
38
36
30
31
44
39
29
31
41
33
32
29
38
40
28
27
29
26
39
31
31
38
44
34
41
41
32
33
41
39
41
37
36
31
30
29
34
22
28
35
32
30
28
36
28
35
32
21
24
31
29
42
34
33
36
24
34
39
36
31
28
34
23
37
46
26
37
33
49
26
25
31
27
26
28
27
29
38
37
30
33
21
28
31
36
31
28
23
25
31
24
25
24
30
29
63
128
120
124
112
102
116
85
91
92
71
65
79
65
76
69
57
48
63
45
60
65
50
42
36
47
49
53
53
47
46
35
46
39
43
31
28
31
29
34
22
33
31
32
28
30
29
25
25
27
27
27
30
28
28
21
19
19
27
24
21
24
36
24
20
15
16
32
24
23
22
21
26
22
18
18
9
15
27
18
22
28
18
13
18
22
33
13
26
27
32
21
13
26
23
25
25
18
20
35
31
23
22
14
17
22
26
23
28
20
22
19
26
21
26
24
16
20
20
23
41
179
145
120
148
119
110
126
90
120
99
83
85
82
65
81
87
70
65
76
56
70
62
51
61
67
50
43
61
40
38
64
52
45
51
35
39
47
30
30
45
36
36
50
36
46
34
28
41
46
40
36
33
25
26
29
37
27
39
36
32
29
30
34
51
37
33
23
29
30
31
37
33
35
31
35
28
43
38
42
36
30
27
24
27
38
24
34
24
34
36
26
26
34
20
35
41
25
20
29
39
29
31
30
20
39
34
33
37
34
33
40
28
30
49
38
23
36
33
28
29
16
9
15
15
13
22
12
10
9
12
16
12
30
19
13
24
12
19
15
16
16
15
16
11
16
16
15
12
10
20
16
16
8
11
17
16
15
13
22
16
17
20
11
21
14
9
16
12
7
14
24
20
79
55
66
61
55
55
57
45
52
55
57
47
46
39
47
42
39
40
48
36
32
40
35
31
32
36
31
33
30
39
45
34
30
31
32
29
40
40
33
29
30
34
34
38
34
33
43
36
35
32
27
31
38
28
28
36
41
30
43
33
38
22
22
33
25
27
39
43
32
22
25
34
28
43
31
36
32
27
30
40
30
24
29
39
30
36
30
37
23
24
29
29
30
39
27
40
38
31
33
30
30
31
31
32
43
33
25
32
27
33
30
22
38
42
25
33
26
28
25
51
159
134
114
109
122
122
83
89
68
76
65
69
67
49
76
57
74
53
72
55
52
55
50
48
49
36
39
34
46
25
48
38
36
36
28
31
38
32
39
36
32
30
40
22
23
31
34
36
23
28
27
26
23
23
22
19
25
25
22
17
16
20
24
25
27
24
20
20
26
22
18
16
15
22
26
18
22
33
17
25
17
27
19
20
17
21
28
24
24
28
17
19
14
22
25
25
24
22
29
20
20
29
19
17
24
24
18
20
28
20
20
14
24
27
21
19
20
28
23
50
176
160
146
139
120
103
98
87
83
98
73
82
93
84
60
87
58
58
68
54
70
55
68
63
58
50
57
41
37
49
41
54
46
54
41
39
47
44
57
41
48
48
39
37
40
47
35
29
32
35
34
37
26
34
30
32
34
38
39
30
32
36
37
29
31
33
27
39
34
36
34
25
33
31
31
30
28
29
34
30
29
43
21
21
34
39
30
27
34
36
47
27
34
29
36
28
33
36
30
26
36
22
31
39
23
38
34
32
30
34
28
40
34
34
31
25
21
26
38
25
15
13
15
13
9
14
19
15
11
14
10
16
16
9
13
12
14
9
8
16
11
13
11
13
10
14
13
14
9
9
7
9
12
6
13
12
13
18
13
22
22
12
13
16
10
10
12
12
11
14
15
17
12
15
12
24
59
67
56
53
60
49
60
57
51
44
50
49
34
50
43
29
43
33
35
35
33
38
32
39
46
29
46
36
32
40
45
37
35
36
51
35
21
36
35
37
35
28
36
26
34
26
28
48
27
30
30
37
34
38
32
45
29
30
43
33
29
34
36
33
29
34
32
37
25
38
43
38
20
28
29
33
33
31
31
24
29
31
33
39
37
36
40
39
34
30
38
37
28
29
29
26
35
37
28
34
49
35
27
25
29
29
30
36
32
32
29
33
37
31
28
35
30
31
20
44
146
111
144
133
98
91
97
88
80
73
74
81
71
75
64
60
59
71
42
46
44
47
47
46
46
44
47
61
38
35
42
56
30
40
35
33
29
26
34
35
20
28
23
27
33
25
31
34
30
12
25
32
29
22
23
12
23
27
20
26
19
23
28
27
18
22
21
22
23
20
31
28
26
26
30
16
17
22
19
26
23
21
22
21
27
27
20
14
25
24
22
12
24
26
26
29
25
21
13
24
19
17
26
23
21
24
19
23
27
19
19
17
20
21
26
23
27
22
25
54
183
125
121
115
114
111
88
98
96
98
93
72
95
75
89
64
55
69
70
71
54
52
60
49
46
50
60
44
53
42
49
46
45
49
45
31
46
51
41
44
44
38
31
47
41
46
26
36
32
38
27
35
32
25
42
31
33
39
37
35
38
36
38
32
40
33
28
33
31
36
26
25
35
30
36
36
37
34
28
42
33
22
28
35
29
32
36
35
32
33
29
39
46
33
21
31
29
27
27
36
21
32
28
45
25
31
33
44
26
23
34
36
27
43
29
29
31
35
27
24
16
12
9
20
13
13
11
11
9
9
14
14
18
9
11
10
18
10
15
16
8
21
12
15
5
12
12
15
15
16
14
7
8
13
10
18
15
14
12
9
15
18
14
12
14
13
13
12
17
16
16
12
20
15
13
12
13
16
6
13
72
60
72
62
45
59
49
46
38
52
46
51
52
42
30
46
45
43
38
38
45
38
41
45
40
34
33
34
31
40
35
37
38
36
30
32
28
32
37
25
33
41
32
32
24
37
32
23
37
30
26
41
42
35
36
35
32
28
33
31
28
25
35
29
16
30
30
30
23
28
39
36
45
28
34
28
26
38
36
27
35
29
31
30
30
39
20
33
31
36
39
40
35
32
32
37
30
26
34
33
30
36
30
35
29
42
34
31
25
34
25
28
18
38
35
26
43
36
37
59
145
116
117
128
102
118
99
100
100
80
97
66
59
73
60
65
52
64
67
54
45
46
57
47
45
44
33
45
43
44
32
33
36
32
31
35
31
22
31
25
23
31
24
28
36
27
23
32
29
33
20
29
27
25
21
16
25
19
24
19
31
22
21
22
29
36
21
17
19
28
16
27
21
21
14
20
21
25
18
24
23
22
24
25
29
16
21
21
25
18
28
29
28
22
30
21
16
24
29
16
24
16
18
30
22
27
17
17
21
23
21
20
19
17
20
17
19
27
22
62
181
126
136
108
121
112
125
101
93
102
93
84
75
84
87
71
81
60
71
55
65
65
61
46
68
61
59
42
51
35
62
47
35
51
36
38
42
45
49
35
37
36
33
40
33
36
34
46
34
36
28
36
38
40
24
33
29
28
41
30
34
31
44
30
38
38
35
33
30
33
25
35
36
28
35
37
46
35
37
31
39
40
36
35
26
34
32
23
27
41
41
32
39
30
43
26
30
26
31
23
43
29
28
39
37
35
23
22
26
20
27
45
31
25
37
26
31
44
25
26
16
18
13
15
18
14
15
14
14
17
9
12
15
13
12
16
15
16
8
7
17
12
15
8
9
17
12
12
14
17
13
8
16
12
18
14
12
15
8
16
15
17
17
11
12
15
12
9
9
9
7
24
16
15
12
14
13
12
16
8
12
12
10
19
78
64
81
56
61
58
71
51
43
40
50
47
49
56
42
44
45
38
47
46
29
52
50
41
37
43
33
36
41
42
41
38
33
43
33
37
36
27
25
27
29
41
37
32
30
36
40
20
33
27
30
33
29
43
32
42
37
30
25
25
28
43
46
38
35
23
34
26
23
41
31
27
30
32
30
39
24
31
24
27
25
28
28
26
37
29
24
37
28
38
29
31
38
33
41
34
21
28
35
34
27
32
26
31
48
26
20
31
39
31
24
40
25
26
37
37
33
29
35
55
117
120
101
111
114
86
93
73
107
76
71
65
54
55
69
54
55
61
48
57
50
58
37
45
40
38
34
37
37
31
33
40
35
43
26
42
35
31
29
24
30
30
20
34
19
41
25
25
17
39
20
24
30
27
19
22
24
23
19
15
25
25
16
28
20
19
20
23
30
20
25
33
28
31
35
14
27
22
23
24
18
20
24
18
21
23
33
16
20
17
24
21
26
20
19
18
22
17
20
14
26
22
16
18
20
23
20
24
27
18
15
21
20
27
20
28
30
23
24
44
159
135
127
116
119
128
105
97
94
102
99
76
93
75
76
59
71
58
60
55
49
60
60
62
48
64
54
57
49
40
56
51
38
38
45
35
47
31
46
47
37
43
37
51
31
44
34
33
31
33
32
35
40
44
31
39
38
34
32
32
27
32
36
37
36
44
35
31
28
34
38
33
31
39
41
34
35
31
44
36
28
44
30
30
29
46
48
29
44
33
28
40
34
31
32
31
29
30
29
21
25
30
33
22
34
35
29
27
32
29
27
34
46
41
27
25
44
23
27
24
16
17
10
9
10
13
9
17
8
15
13
12
11
14
13
12
8
10
10
18
15
15
12
10
22
12
11
14
14
15
16
21
14
14
10
20
15
14
14
8
11
10
13
22
15
8
11
16
17
13
13
15
12
18
15
10
14
16
17
13
14
11
11
12
11
11
15
27
85
71
58
64
50
50
52
45
36
45
40
51
42
44
42
34
58
46
30
43
47
40
45
37
35
47
43
27
40
35
39
45
40
38
39
29
37
33
44
41
32
33
33
36
43
26
46
33
28
32
32
30
34
29
39
28
36
29
42
30
33
35
31
28
26
38
21
34
37
32
35
35
30
29
31
34
40
25
30
38
35
36
29
33
33
37
20
35
33
25
34
46
33
35
35
35
29
44
27
31
31
29
32
25
34
34
33
38
34
33
36
27
33
30
34
36
36
28
33
47
140
128
123
120
104
88
86
89
78
86
94
73
66
67
65
71
52
54
52
55
58
58
43
50
41
42
52
48
46
30
43
41
46
32
40
37
31
38
33
32
22
33
38
26
35
22
30
28
31
18
21
27
34
33
21
19
27
35
20
18
23
16
23
19
22
20
28
26
21
23
25
28
35
25
24
18
31
22
28
20
21
19
31
27
15
24
18
19
26
16
20
29
17
17
21
19
16
28
19
17
22
23
17
26
18
17
19
29
24
27
23
22
21
17
25
20
24
16
14
56
174
124
118
115
127
120
92
91
109
86
92
73
89
65
71
76
52
61
70
53
59
69
58
58
54
64
51
60
45
48
40
38
47
54
44
52
52
47
40
36
39
43
37
39
33
34
38
27
25
35
29
38
36
31
34
36
35
30
38
34
29
49
34
28
37
31
28
44
29
23
34
41
43
41
30
38
23
27
31
28
37
36
33
32
27
32
29
28
41
32
30
27
37
39
37
32
34
31
38
35
20
33
31
37
33
22
32
24
40
25
30
33
29
30
37
37
32
26
24
35
21
10
17
12
10
19
10
10
12
12
14
16
14
25
20
16
11
4
7
12
18
16
9
12
10
15
15
18
12
14
9
10
11
7
19
12
15
10
15
21
12
20
11
16
20
13
17
14
12
15
10
20
16
14
9
19
9
15
11
12
7
5
15
15
12
13
11
12
20
13
10
27
71
59
55
55
60
57
50
52
46
51
42
58
50
59
36
38
45
60
40
41
40
34
43
43
26
35
42
35
39
32
31
35
35
50
33
38
39
21
34
46
36
20
29
32
34
32
38
36
27
42
36
37
23
39
40
29
36
37
37
31
39
32
36
26
19
35
45
29
35
20
35
26
30
33
35
30
28
34
36
38
40
32
28
36
44
26
18
26
32
32
36
33
43
31
36
36
32
35
35
35
36
29
38
22
37
26
31
34
35
26
26
42
24
29
28
28
36
21
30
71
129
127
109
74
93
110
95
96
88
77
72
64
77
69
59
65
79
72
50
52
53
53
47
44
40
40
46
29
46
42
28
43
30
42
33
33
25
33
27
37
20
30
27
31
23
26
27
17
28
23
26
25
30
25
35
24
21
22
23
21
19
18
31
13
13
24
19
27
27
25
20
20
21
26
22
21
14
17
18
24
24
29
21
26
21
21
19
33
22
27
17
15
24
11
27
24
24
17
18
18
19
20
23
12
20
23
18
30
25
15
25
24
22
37
22
25
23
19
23
44
153
128
105
124
113
117
108
103
112
94
96
77
89
66
80
69
75
65
63
64
71
70
54
48
46
44
56
41
63
47
43
49
50
41
44
41
42
41
47
38
34
46
31
43
33
33
42
41
33
46
41
33
22
36
48
30
41
46
40
45
28
29
22
19
25
21
39
25
30
43
49
31
32
37
34
44
31
35
41
37
53
34
39
31
38
38
46
29
39
36
31
38
30
31
32
39
27
29
31
46
32
36
31
26
25
26
31
41
23
35
36
28
30
35
26
37
40
36
33
31
16
13
19
14
15
12
11
10
21
12
12
16
12
8
13
12
12
17
13
14
15
15
15
13
15
8
15
11
11
17
15
9
10
16
7
20
13
7
10
10
10
12
16
15
8
11
11
16
11
9
11
15
9
14
10
15
13
10
17
18
15
21
14
16
16
19
12
16
17
16
14
11
12
12
15
20
57
81
56
68
58
62
59
53
48
50
52
40
47
39
42
39
46
37
42
52
43
36
40
40
32
42
40
37
43
44
28
39
39
33
44
33
32
36
29
31
32
48
36
28
37
27
31
33
32
32
47
30
25
31
37
39
44
39
44
26
32
25
31
26
33
33
31
23
31
42
28
32
31
30
33
29
37
34
27
35
32
33
28
32
20
27
31
35
35
27
26
41
24
33
29
24
39
35
28
21
34
31
40
35
35
26
43
23
27
33
28
38
24
24
38
25
37
30
33
58
122
124
133
107
120
101
81
91
102
83
74
79
71
70
62
65
55
59
48
56
54
52
60
42
42
55
38
43
30
47
35
51
41
30
23
33
32
37
23
34
34
35
30
38
30
21
30
26
25
27
29
25
22
19
26
29
27
26
27
21
16
21
20
20
29
21
22
24
29
25
13
29
17
24
27
23
27
27
24
25
24
25
25
24
21
16
20
21
21
31
22
26
29
18
20
11
20
23
18
30
19
18
27
24
19
23
20
26
18
15
13
27
17
23
17
16
29
9
17
48
166
122
131
135
114
115
101
108
113
96
84
87
79
82
75
78
76
82
65
84
76
62
58
52
48
59
61
48
52
43
45
42
52
38
37
41
36
43
39
40
41
38
42
52
43
44
35
45
38
35
31
30
32
35
40
29
33
33
35
31
42
33
30
33
24
22
33
37
34
30
34
35
38
38
30
35
35
33
37
45
39
28
23
38
29
30
34
29
38
33
32
39
32
25
29
23
35
28
33
28
27
37
36
34
34
31
30
46
38
34
28
33
35
33
35
33
38
23
39
35
13
15
15
14
13
9
15
11
12
13
18
11
12
11
16
11
16
14
14
14
10
17
21
12
8
16
11
9
18
15
16
19
14
9
9
4
11
16
13
17
15
16
16
25
9
13
16
15
13
15
18
11
12
16
9
12
18
11
12
19
17
11
12
9
18
13
15
13
14
9
13
21
12
11
12
17
15
18
10
22
83
64
63
68
55
58
62
55
55
47
53
46
55
40
42
40
39
56
46
37
47
32
49
40
40
42
36
39
38
52
30
38
38
40
42
31
35
30
33
42
33
29
27
25
33
36
40
31
29
36
35
32
38
42
29
29
37
24
39
27
34
25
29
26
30
33
36
35
29
32
35
32
31
38
33
32
34
31
31
32
31
31
31
26
35
31
27
34
19
36
30
39
42
34
32
36
33
34
25
29
33
29
33
38
22
39
37
27
32
31
31
35
23
27
30
30
36
25
37
56
131
125
116
115
94
96
89
80
87
69
69
60
58
67
60
68
68
59
50
60
61
51
50
62
47
43
48
40
36
41
35
27
32
27
39
36
38
33
32
36
28
30
32
26
25
32
23
20
26
23
14
23
26
32
24
34
31
29
20
24
20
28
24
23
15
18
25
24
21
14
25
22
17
27
25
18
24
18
26
24
26
20
11
19
17
32
18
20
17
19
18
22
21
35
22
20
27
20
27
28
25
23
18
16
22
19
20
28
14
32
12
23
20
24
18
20
23
26
21
64
171
126
137
96
107
113
111
104
108
92
95
81
94
84
67
66
68
60
72
67
60
54
56
47
53
47
59
45
48
51
47
59
41
38
56
44
47
35
44
48
38
41
51
38
46
41
39
29
49
39
26
36
39
31
46
31
38
33
29
25
29
35
38
38
27
35
27
29
37
37
44
46
28
25
29
41
40
33
42
47
37
40
28
31
46
24
27
25
42
26
38
30
29
24
24
39
27
34
31
39
37
26
31
39
35
33
22
32
36
23
32
39
31
40
29
26
20
36
40
28
16
13
12
15
9
14
13
12
14
13
9
11
13
9
13
10
13
15
13
15
10
8
7
16
18
14
18
13
8
11
12
13
8
15
16
14
10
13
10
15
15
13
13
12
15
11
12
13
21
13
17
13
10
14
11
19
17
18
15
7
13
15
8
15
21
13
13
13
11
11
18
19
13
11
16
9
19
18
9
21
15
13
18
19
75
79
60
78
62
53
57
62
45
54
66
33
49
48
40
37
53
47
51
52
40
41
36
43
35
44
39
34
29
34
37
46
37
35
28
39
41
42
32
31
34
27
34
26
36
29
36
41
35
34
35
26
27
25
37
22
34
40
27
25
31
33
24
26
39
41
36
29
31
33
25
35
26
43
46
28
34
33
31
38
32
28
28
28
31
30
30
35
24
40
42
34
30
35
32
34
32
30
29
29
34
34
33
27
38
43
21
31
37
25
31
31
23
31
26
37
35
32
25
57
134
141
129
128
93
98
97
89
75
91
65
70
69
67
55
57
69
54
46
49
46
50
63
51
42
31
45
43
48
28
46
45
39
27
35
32
27
29
30
28
33
30
31
29
27
18
28
29
29
35
24
31
23
35
27
36
28
21
31
26
27
27
28
19
28
29
26
24
22
26
22
21
30
21
32
23
18
22
24
27
27
28
23
28
29
19
16
26
20
25
29
25
14
28
24
34
24
23
20
19
27
16
30
29
26
23
23
18
19
25
11
19
26
20
19
12
12
16
15
64
168
119
122
109
120
106
107
107
92
81
90
93
70
72
77
69
78
80
73
59
54
66
63
59
43
61
59
53
60
53
52
50
52
61
36
41
30
40
58
49
42
44
33
35
37
39
42
28
37
43
40
29
28
37
39
32
41
28
39
41
34
41
39
38
38
44
33
39
29
31
27
29
41
31
41
28
31
45
38
25
40
33
44
40
30
45
43
29
36
30
22
20
29
37
36
29
34
29
38
39
34
32
30
32
24
27
35
21
29
35
37
31
38
34
36
37
34
31
31
26
20
8
19
15
17
13
16
19
12
7
13
22
11
13
11
21
13
22
10
11
21
12
14
13
13
15
17
9
9
19
16
17
19
13
14
13
7
9
11
16
19
15
13
12
22
12
20
15
12
7
15
17
8
12
17
11
7
9
10
9
15
13
12
12
8
13
16
17
12
18
9
16
15
17
10
15
13
19
14
13
13
14
14
14
11
15
12
30
76
53
65
61
66
57
36
50
66
62
47
50
51
48
36
45
44
44
31
36
43
32
35
35
58
35
53
33
39
30
45
43
35
38
30
30
45
47
24
28
36
26
31
39
32
38
32
37
30
25
21
37
24
32
30
30
36
32
30
26
35
34
41
31
21
36
29
34
31
23
38
30
36
35
34
30
34
32
32
46
20
27
24
17
28
34
27
30
31
32
30
35
25
34
29
26
31
32
27
35
26
32
43
34
24
27
46
31
31
29
31
34
38
29
44
33
30
30
30
59
152
108
129
118
118
89
94
105
78
83
76
78
73
86
82
60
59
62
70
53
38
49
45
46
46
48
42
56
45
35
40
40
35
49
28
31
33
31
29
27
30
27
23
23
24
28
27
31
31
28
28
23
27
23
24
26
26
23
26
23
21
23
23
18
19
23
22
20
23
12
22
14
18
17
25
15
25
21
33
24
26
29
33
16
17
26
26
33
21
20
15
28
23
26
25
11
31
26
22
22
12
33
17
28
23
19
25
18
20
22
23
20
25
20
24
26
17
24
25
47
170
132
138
135
121
108
102
101
87
90
96
82
75
99
66
68
72
57
73
73
68
49
60
48
62
53
49
55
50
49
39
47
46
48
46
39
41
32
35
43
45
35
36
43
36
45
45
47
35
33
34
30
25
26
36
30
35
40
32
39
42
30
35
38
28
37
34
30
41
35
32
28
32
40
29
35
51
29
40
35
38
29
36
38
37
23
25
29
29
34
31
29
25
34
29
27
21
37
34
21
27
33
19
29
36
36
35
26
32
27
33
27
29
37
29
30
20
34
30
28
22
18
15
9
9
8
15
9
10
15
16
16
21
19
19
21
16
17
13
14
14
17
13
13
8
7
9
18
8
18
15
14
7
20
9
15
17
14
12
14
17
15
13
6
13
15
11
10
15
17
12
10
8
18
11
8
9
10
14
14
12
12
20
11
11
14
19
14
15
18
19
12
16
12
13
13
13
14
16
9
18
10
17
13
12
13
15
12
16
12
13
30
75
66
68
53
54
61
52
57
49
43
58
46
43
45
43
48
48
38
37
40
40
28
48
37
36
45
43
38
40
52
36
28
30
43
37
34
30
31
37
33
33
37
32
44
26
36
45
25
44
38
36
41
35
23
29
33
44
31
26
46
27
33
26
34
36
35
30
37
31
33
29
39
31
34
31
42
32
32
39
18
25
34
27
32
33
34
37
35
37
35
33
27
48
34
22
34
34
35
27
33
27
36
27
34
35
35
34
36
28
33
27
21
36
37
27
36
32
34
34
44
153
120
94
102
112
109
96
97
85
90
87
94
78
50
75
76
58
68
49
47
45
52
41
58
41
47
46
34
38
32
31
31
36
35
28
35
31
30
32
26
29
28
24
32
21
31
24
25
21
21
23
29
26
31
19
22
24
27
27
25
17
21
31
29
26
22
22
19
23
29
29
27
17
21
24
14
24
19
16
18
19
20
18
9
26
23
17
24
23
24
18
26
24
20
23
25
24
23
18
12
20
16
14
26
16
15
20
27
29
19
25
25
25
19
25
25
19
13
21
54
168
138
125
128
119
114
103
102
102
78
105
91
87
81
71
74
82
47
67
64
64
66
56
57
49
54
55
52
45
56
53
52
48
48
42
37
52
41
43
32
44
39
33
41
30
39
40
32
34
38
35
35
24
33
46
34
32
40
38
45
38
34
41
34
23
34
28
41
28
30
36
39
33
38
31
31
34
36
33
36
29
34
33
40
31
31
38
32
36
36
37
29
32
29
30
30
22
30
28
25
37
22
33
30
24
22
30
37
34
31
39
41
36
28
36
35
34
28
38
28
14
12
7
18
14
18
19
15
13
13
10
15
4
10
22
13
13
14
13
11
10
19
12
19
21
16
12
9
14
12
13
11
13
16
19
10
14
10
11
18
9
14
11
9
11
12
11
13
15
14
7
9
12
15
15
15
16
13
19
14
14
11
21
16
11
13
14
12
14
14
10
13
9
15
17
13
19
17
16
12
13
9
13
20
15
14
5
18
11
17
14
10
7
11
13
29
84
63
65
58
54
55
51
63
47
46
54
52
62
51
45
40
51
41
51
41
47
43
33
46
47
43
32
42
25
44
27
38
49
36
39
38
42
38
37
40
30
31
38
35
37
38
27
40
34
43
37
36
37
26
34
36
26
29
44
26
33
34
40
31
27
26
32
37
29
33
30
29
37
39
30
40
19
28
30
31
25
35
40
31
37
37
40
39
34
34
21
28
37
33
28
30
37
25
32
28
29
29
21
34
31
44
30
23
25
27
30
37
32
30
34
38
25
30
32
59
126
131
112
116
108
114
91
103
88
77
88
76
77
73
71
66
70
63
64
39
60
56
42
42
51
45
48
34
38
45
38
40
35
32
34
25
27
36
27
34
34
17
28
23
30
24
35
27
23
29
23
29
28
32
21
31
24
17
30
25
34
31
21
17
29
21
28
19
18
20
14
19
28
26
23
21
24
21
20
18
21
17
24
21
21
14
17
18
24
15
24
30
20
28
31
25
18
23
24
22
25
18
24
20
15
18
22
24
27
16
27
21
20
16
13
24
24
27
25
44
148
154
133
94
129
108
116
105
87
81
81
84
93
86
76
67
82
82
64
57
64
52
69
63
56
63
53
50
49
51
54
42
48
38
44
42
28
40
42
43
49
36
38
34
38
54
43
32
41
46
41
40
36
48
39
32
39
32
36
37
34
42
26
40
36
33
41
27
32
36
29
33
37
38
25
31
36
29
25
28
36
25
30
35
35
34
38
35
25
27
34
27
36
30
27
30
29
31
32
30
40
35
32
31
36
24
29
42
30
29
38
36
31
39
39
36
33
42
30
31
18
14
16
12
9
21
11
6
13
15
18
22
16
20
9
14
19
14
15
13
17
11
16
14
16
13
11
17
13
11
11
11
16
16
15
16
18
18
20
14
9
16
13
22
13
15
12
8
17
15
9
17
9
16
12
11
13
20
16
16
22
16
17
11
15
20
11
12
12
14
15
11
15
9
12
9
8
16
14
16
19
13
16
8
10
10
15
15
12
17
22
13
7
18
19
14
18
14
8
22
75
58
54
65
58
58
52
65
57
57
48
47
48
43
49
47
49
46
38
41
44
54
44
39
42
38
33
44
33
40
26
44
38
29
30
33
43
27
36
34
29
40
31
39
27
31
32
30
44
25
40
32
33
33
30
23
39
31
30
33
27
22
32
38
20
35
28
31
23
34
34
47
33
41
22
28
41
24
22
38
40
23
43
27
43
48
34
33
21
34
31
24
30
31
31
29
41
24
26
37
36
37
41
36
33
25
27
27
25
31
24
32
35
23
31
23
29
24
27
58
145
139
133
113
107
105
86
81
92
81
78
62
60
83
62
60
51
49
61
56
59
44
43
58
50
49
39
32
51
32
30
41
37
41
39
33
35
37
29
38
32
31
20
36
27
27
34
39
28
22
26
28
23
22
23
21
33
20
21
24
26
25
21
21
19
26
19
26
27
26
19
17
16
24
24
22
25
27
23
32
25
27
18
30
19
17
28
22
24
18
27
26
20
17
21
19
21
25
16
17
20
16
20
19
20
20
17
17
21
18
25
14
22
28
24
19
22
15
22
48
162
141
152
128
102
111
107
119
100
74
77
97
102
84
65
66
67
74
66
64
48
68
58
62
57
58
62
49
39
57
62
43
44
47
52
41
32
48
31
35
48
40
41
26
38
33
37
42
45
48
38
32
33
34
33
42
24
41
34
23
37
29
31
34
33
39
36
25
41
27
29
27
33
35
35
36
34
38
32
41
31
48
31
31
24
33
34
29
31
28
24
28
37
29
24
38
26
41
29
30
21
31
35
29
29
41
29
30
29
32
25
35
32
32
28
29
40
32
24
34
21
14
20
6
10
11
19
16
11
12
12
12
12
9
15
9
20
14
17
14
11
15
8
17
11
11
16
11
21
10
12
16
10
12
13
13
13
6
17
17
8
9
15
14
10
12
12
16
13
11
21
14
9
21
14
10
22
19
19
14
18
9
9
15
13
10
10
13
22
13
16
10
11
14
19
13
18
21
14
12
20
15
15
11
13
7
11
16
17
13
13
20
18
7
8
19
12
19
12
19
10
13
10
24
73
63
58
63
49
61
56
58
65
55
41
52
46
47
39
38
38
32
53
40
43
40
38
43
48
36
42
34
39
43
37
41
47
37
40
38
33
39
32
44
43
28
37
43
41
23
26
36
31
33
27
29
38
37
37
38
51
24
38
29
42
37
43
46
39
29
21
31
38
35
26
27
32
33
47
27
38
23
31
32
38
34
38
36
28
34
31
34
36
38
34
36
30
36
27
29
24
24
29
25
36
36
31
28
31
24
32
33
25
30
28
27
34
31
26
32
21
32
33
68
150
114
116
113
106
105
93
102
83
82
81
76
85
71
65
59
60
53
60
42
60
53
48
42
44
40
39
45
38
39
34
39
32
34
49
32
30
26
27
36
32
28
32
31
23
32
21
27
30
25
25
27
34
27
35
26
21
30
23
23
25
23
24
20
18
21
15
36
28
17
18
22
21
16
12
26
14
29
31
14
27
27
33
28
20
25
21
24
21
22
25
23
23
23
21
23
23
19
22
21
28
15
19
30
21
19
30
31
24
21
23
20
17
12
20
18
20
24
24
43
149
141
125
125
127
120
110
106
85
90
83
84
74
94
78
74
73
66
62
62
46
76
53
56
47
60
51
46
49
49
55
48
60
61
50
41
48
36
49
39
42
34
37
49
44
33
41
43
33
28
30
35
36
35
30
33
37
39
27
28
31
32
33
35
31
38
39
29
30
36
37
37
36
42
22
46
42
23
35
28
29
34
32
27
26
27
31
25
27
37
35
40
25
32
28
28
21
32
30
37
30
37
39
38
35
34
19
25
34
33
33
32
35
28
33
34
34
35
21
30
18
18
7
11
12
17
11
8
12
14
17
16
14
11
25
11
19
16
6
13
20
10
18
13
13
11
9
17
14
13
19
22
14
13
10
12
14
14
9
14
16
20
13
18
16
10
11
12
12
10
9
27
15
13
18
10
9
12
18
14
11
17
14
8
9
10
14
17
15
11
15
14
17
19
15
16
13
16
12
20
15
14
16
21
15
8
17
12
9
18
10
10
13
12
14
10
14
10
12
20
11
10
12
18
17
20
12
26
89
78
75
64
59
66
58
52
50
52
59
56
47
50
48
46
49
47
46
53
38
44
39
46
59
33
38
45
36
39
39
33
32
42
42
35
44
29
33
36
37
40
32
37
34
29
28
31
36
33
35
22
33
31
31
38
33
38
29
28
39
26
29
32
41
41
30
26
33
29
39
31
25
38
39
30
30
32
30
33
39
31
30
28
37
36
34
45
46
27
30
29
30
33
36
28
35
36
38
36
24
39
33
38
34
32
24
34
35
41
31
23
29
29
23
41
29
42
33
52
161
125
110
117
113
86
90
86
91
78
104
67
66
66
64
59
51
49
60
49
52
43
54
43
65
45
35
54
39
33
26
28
45
36
28
33
34
42
20
33
32
32
33
29
28
26
19
31
26
23
29
27
23
32
38
21
33
25
19
28
23
27
18
27
18
27
23
20
22
28
33
31
27
20
24
27
22
29
27
22
29
21
23
26
22
19
27
18
18
20
19
16
16
21
20
23
21
20
12
31
21
19
15
14
24
14
23
18
26
24
29
16
21
21
23
20
14
23
15
35
168
132
126
122
119
119
109
97
98
90
90
85
77
68
82
69
75
76
56
59
70
56
58
51
63
55
52
45
42
42
49
51
42
40
44
50
37
48
34
30
33
30
39
27
28
33
43
32
41
25
36
39
37
35
40
33
40
28
35
43
31
35
32
38
38
36
35
35
32
40
25
49
33
24
34
29
31
28
33
28
39
30
28
32
29
22
31
33
32
37
42
32
34
29
28
34
26
40
40
26
28
25
20
25
30
35
32
28
27
35
37
39
33
28
36
38
37
28
47
33
14
16
15
5
12
17
12
14
13
12
11
12
13
19
14
20
9
13
18
8
14
12
12
11
15
24
12
14
14
14
17
20
13
13
13
17
12
16
6
11
10
15
9
9
16
11
9
12
17
14
11
8
8
17
10
16
8
21
13
13
16
15
16
11
16
16
15
11
18
11
11
15
19
15
18
8
21
12
13
21
19
13
13
9
6
10
7
19
13
11
17
11
16
19
20
11
12
12
14
15
16
19
11
15
13
14
10
14
9
10
14
23
83
70
76
62
59
77
52
64
56
57
59
38
57
46
37
42
45
40
44
49
49
39
46
41
36
32
29
36
28
35
34
37
23
43
22
26
45
43
29
36
45
38
37
40
31
36
28
32
34
28
27
29
29
28
37
54
33
31
40
28
36
41
35
42
32
35
36
43
34
45
35
20
26
39
33
28
26
36
36
37
29
36
23
38
38
40
27
31
24
27
27
33
32
33
21
29
42
33
25
35
37
44
33
29
27
33
24
33
30
34
33
26
30
36
27
40
36
29
32
43
127
121
120
102
99
103
75
83
96
87
73
71
91
77
93
61
52
58
54
67
64
57
49
44
65
38
54
42
42
36
38
44
37
27
39
29
36
27
31
24
32
31
28
27
21
31
21
28
22
29
27
28
26
19
22
20
22
27
20
32
20
21
18
22
15
31
14
23
22
25
16
34
22
17
20
28
29
30
31
23
21
16
23
27
26
22
29
26
33
10
15
27
22
25
24
18
20
24
17
20
21
23
25
21
27
20
20
19
24
21
16
15
18
28
19
25
27
27
25
61
160
116
108
125
113
118
116
127
100
98
89
84
83
82
87
62
83
61
67
68
62
61
56
59
52
48
54
56
44
37
55
50
51
47
53
42
42
44
51
44
44
60
38
29
39
30
34
29
41
52
46
38
37
34
35
34
38
39
38
28
41
31
31
31
24
30
33
36
31
36
42
32
32
35
25
39
35
25
39
26
38
30
37
24
42
31
23
29
32
35
31
34
35
41
24
30
30
37
31
24
35
27
34
34
32
32
33
36
25
42
36
29
30
30
21
45
40
44
29
29
16
18
16
12
13
13
15
15
10
12
9
10
7
14
12
16
19
6
16
24
9
18
21
12
10
14
10
7
15
15
15
12
10
19
22
17
14
14
13
13
12
13
20
16
12
13
15
10
15
12
9
16
22
14
13
16
14
15
13
13
13
15
17
15
15
15
20
12
13
12
20
19
21
14
17
18
16
17
6
16
14
16
14
18
6
9
12
10
19
12
10
14
12
14
11
13
16
13
15
10
14
12
14
11
12
11
16
13
15
16
13
6
9
8
22
26
63
75
51
79
66
63
53
49
39
56
50
47
58
50
45
52
46
42
51
45
44
44
39
36
35
29
36
38
38
39
32
36
38
32
33
34
26
27
36
32
45
41
39
32
42
34
31
37
45
39
40
41
34
29
40
38
25
44
39
26
27
35
25
31
28
34
27
27
28
28
37
36
22
19
34
30
35
29
33
33
32
40
33
40
33
34
38
35
34
38
32
30
33
22
31
30
33
29
30
27
35
29
37
33
32
32
28
30
25
22
27
30
33
33
31
31
35
37
31
76
129
133
135
94
117
111
88
89
64
77
62
76
64
64
75
66
69
61
62
54
43
58
46
38
49
37
38
33
38
37
35
36
32
29
29
33
33
43
41
35
32
27
29
23
36
31
37
33
24
29
24
23
18
23
25
18
17
16
21
20
28
27
21
15
25
17
17
27
36
29
23
18
29
27
20
23
20
15
22
14
20
22
20
21
22
14
14
18
23
11
25
15
20
29
24
25
19
27
25
18
21
26
19
15
30
26
21
15
22
15
16
26
15
20
23
23
15
18
18
44
151
135
131
105
109
98
99
100
90
76
80
92
78
95
72
66
65
67
75
62
58
62
66
53
52
63
59
44
55
53
40
61
47
45
44
56
38
47
48
41
32
44
50
33
32
36
45
37
31
49
48
28
40
33
26
42
30
29
36
29
38
34
40
28
26
37
23
24
32
49
40
29
38
32
31
29
35
33
33
42
38
36
27
30
31
35
40
32
30
27
25
24
26
30
29
32
39
30
31
45
34
25
36
24
29
42
32
42
31
42
38
34
28
26
37
32
26
26
32
30
15
15
14
9
8
21
16
11
11
8
12
9
9
10
14
13
12
9
17
20
14
13
16
17
16
11
8
13
9
9
14
17
19
18
15
12
10
23
9
12
16
16
12
11
20
9
12
12
11
9
16
14
8
14
16
12
14
15
19
15
17
12
9
11
14
14
11
16
22
13
13
12
16
11
15
18
8
15
11
9
10
16
19
10
13
9
11
16
18
17
15
14
23
11
16
15
17
8
14
16
16
10
14
13
15
15
14
10
13
12
14
16
14
7
14
18
13
6
18
31
95
63
73
75
62
61
57
50
48
50
54
46
46
63
52
52
51
34
36
42
41
43
34
42
37
48
34
51
39
44
50
36
35
47
34
35
41
30
25
31
44
35
35
28
42
31
33
25
39
26
29
27
31
21
43
23
33
35
25
23
25
22
31
28
26
35
39
31
33
37
38
28
40
34
22
26
29
34
33
26
33
30
35
32
26
34
38
37
31
37
38
30
31
33
28
33
31
42
25
33
23
31
28
31
28
24
34
34
32
30
29
22
37
30
34
32
34
30
40
44
137
118
106
99
104
104
75
79
85
79
81
77
61
71
71
60
57
57
60
55
51
56
44
37
43
37
36
34
39
56
30
41
50
29
26
39
37
39
30
34
24
33
30
39
29
27
23
18
28
33
22
26
18
30
25
20
28
23
20
25
20
26
23
27
21
16
24
25
23
22
18
23
32
21
29
28
15
27
30
24
31
28
23
25
22
24
23
18
25
19
16
23
28
29
17
31
26
21
16
15
20
22
15
22
27
30
15
17
26
27
16
20
15
20
18
21
24
27
16
62
155
140
138
108
115
117
113
110
90
100
98
82
75
76
76
67
59
53
54
74
61
61
60
57
54
55
51
57
57
46
40
50
44
48
47
37
51
42
51
44
44
37
35
41
36
37
31
36
40
41
28
39
39
37
36
49
28
33
37
38
32
45
30
25
31
36
36
35
32
32
28
26
26
35
31
39
31
34
39
30
25
38
27
27
49
33
29
32
29
27
36
30
31
38
39
32
33
34
27
24
29
43
26
38
23
38
23
39
26
29
35
27
21
42
23
25
29
24
25
36
15
14
17
22
16
18
9
13
15
14
17
13
13
9
12
11
17
6
9
18
11
11
8
15
15
11
14
13
17
8
10
10
10
13
18
9
18
16
16
16
16
11
20
19
23
15
17
14
20
14
15
14
12
8
17
13
9
16
9
11
16
18
15
13
12
8
11
10
10
11
19
14
9
10
12
23
12
12
19
21
9
18
13
19
19
17
13
16
17
14
8
23
16
16
17
10
19
15
9
16
18
11
16
17
17
18
25
12
10
11
13
11
15
6
12
13
12
15
13
11
10
13
12
17
86
76
57
68
71
63
60
52
73
54
47
51
52
43
48
42
49
52
53
50
39
65
34
41
41
43
35
35
32
45
34
33
32
38
40
25
30
33
38
38
40
33
33
36
25
29
25
38
30
40
37
40
38
32
40
35
32
40
32
32
27
35
29
31
40
35
38
34
37
43
40
29
44
38
40
16
42
28
30
34
34
31
40
29
30
37
36
31
36
22
37
25
33
30
31
41
39
32
29
33
36
34
25
40
37
28
28
33
25
36
38
40
23
31
39
47
28
34
36
52
141
123
111
111
104
82
88
85
92
89
90
73
86
74
51
80
63
50
55
52
54
51
58
42
43
52
43
42
24
30
28
46
32
39
35
30
46
26
24
29
32
24
19
28
35
23
20
29
33
24
35
30
31
29
28
26
32
24
28
21
29
21
29
25
24
21
32
23
24
29
26
15
29
26
31
24
22
22
28
28
19
19
22
26
14
20
20
16
23
19
33
22
27
22
17
21
22
16
21
19
17
31
15
25
25
18
19
17
25
29
19
25
19
14
20
21
19
23
17
62
153
153
103
134
112
112
93
91
93
78
78
97
91
72
74
79
59
57
73
57
58
62
54
69
64
42
52
64
45
59
58
45
42
41
44
41
42
37
57
39
43
43
39
40
34
29
33
48
42
32
35
30
38
39
34
39
34
33
32
32
28
36
27
41
25
44
38
39
35
47
37
27
28
45
38
31
34
33
27
32
27
38
49
34
29
22
31
39
37
31
29
43
25
44
28
36
42
28
34
49
35
36
24
23
37
28
39
32
38
37
45
29
34
32
31
29
29
37
34
33
16
14
15
13
11
10
12
18
3
13
14
16
16
13
16
19
12
7
14
14
14
13
12
8
9
13
14
17
9
12
13
19
17
12
15
14
18
5
19
9
23
14
14
17
11
9
12
8
10
14
11
14
19
18
13
14
8
9
12
9
22
13
12
17
13
10
12
19
10
12
9
8
13
14
22
11
7
14
8
12
11
16
14
18
10
14
15
16
16
16
14
17
6
13
7
21
17
10
14
9
8
10
10
14
17
13
18
15
13
14
10
15
15
15
20
17
15
18
9
12
8
10
21
12
11
11
20
30
86
75
64
61
69
60
58
53
61
53
70
55
44
60
56
36
56
37
41
50
58
44
40
30
37
34
39
47
36
38
38
36
41
31
41
31
41
32
34
28
33
40
36
33
32
24
27
45
33
30
39
31
44
34
38
38
27
29
32
32
26
30
37
37
24
34
31
29
43
26
40
33
33
29
44
30
30
30
27
46
26
42
40
41
40
38
23
29
29
34
22
31
34
40
33
39
37
42
25
36
34
29
31
40
33
33
38
37
34
37
35
31
27
39
28
27
34
47
35
56
139
101
109
83
115
96
94
93
77
87
66
62
64
77
68
58
68
50
45
54
54
45
41
38
41
40
38
35
49
45
36
37
38
40
35
34
36
39
35
36
27
25
36
30
28
20
20
25
28
32
23
24
31
32
30
25
20
27
24
30
24
23
18
21
28
18
22
31
19
12
25
25
32
26
21
28
21
19
12
14
26
20
22
35
28
20
29
19
20
20
23
21
19
22
23
13
19
24
15
16
24
28
18
17
20
18
18
21
21
20
18
24
15
21
24
17
18
20
14
43
152
135
108
138
125
98
95
112
85
88
93
86
80
62
79
75
68
78
67
65
52
63
62
36
43
46
55
32
47
52
42
42
58
32
55
57
37
41
40
49
40
37
44
33
37
45
41
34
39
26
47
39
41
41
34
36
46
41
36
42
29
33
33
41
36
32
42
34
42
27
34
35
40
30
33
35
28
38
30
38
27
25
34
31
32
43
25
27
32
32
35
25
41
35
27
38
37
37
29
31
23
37
22
45
35
36
33
24
35
30
40
26
25
30
37
29
27
26
41
34
26
17
9
16
7
11
11
9
9
13
18
5
8
9
15
13
15
18
15
17
12
21
17
21
8
5
16
16
7
12
9
14
10
12
11
10
14
20
18
10
15
11
19
14
20
13
14
12
6
18
10
22
11
15
18
16
15
16
10
13
15
12
12
16
11
17
12
14
15
19
9
14
13
12
13
9
14
10
16
15
18
13
11
13
8
12
12
14
9
16
11
9
15
10
8
15
13
14
14
11
13
8
13
13
18
13
17
13
13
20
9
9
13
25
8
15
27
23
9
17
13
15
18
19
15
17
15
13
15
15
12
22
74
65
61
72
66
67
68
68
70
47
70
61
62
34
50
45
49
44
38
45
36
37
37
49
38
35
43
34
33
49
40
39
42
34
35
42
36
38
42
36
39
32
40
27
38
29
31
35
30
42
25
28
24
31
28
49
30
27
31
33
24
29
46
31
35
34
34
35
20
31
36
40
20
28
27
33
28
29
28
35
26
42
27
31
30
25
43
42
28
23
33
34
35
33
33
24
27
34
38
24
31
41
42
40
33
31
30
29
31
33
31
27
28
28
30
30
25
34
29
46
137
108
121
108
107
94
78
91
104
81
66
71
70
71
71
62
67
62
62
49
50
44
55
44
46
41
52
49
33
36
41
29
25
27
35
33
37
41
29
32
27
24
27
39
29
35
33
18
28
28
24
18
26
25
17
14
32
27
25
23
24
26
14
33
23
24
20
18
29
23
25
18
21
20
28
23
26
27
25
16
23
21
26
24
17
22
31
24
18
24
20
17
22
22
24
22
27
31
20
20
26
22
25
20
23
23
22
20
19
19
21
25
14
22
29
13
21
17
13
43
138
152
125
118
135
137
113
80
108
88
95
79
86
83
87
76
72
61
63
54
68
62
70
69
59
53
49
48
40
59
43
30
63
32
41
31
34
47
41
43
43
41
43
30
26
27
31
33
43
40
35
20
49
34
17
44
29
29
31
33
27
31
29
32
39
33
18
42
40
49
29
36
37
34
30
35
31
42
31
41
32
28
28
35
29
35
21
34
31
40
18
25
32
33
41
30
35
30
29
24
32
30
36
26
28
30
30
27
29
30
33
19
38
29
44
30
31
27
37
35
18
17
15
13
20
14
20
12
10
19
18
10
14
9
13
7
22
14
15
16
20
12
9
8
9
12
14
13
13
21
15
14
11
15
15
11
15
16
11
13
15
16
9
12
10
15
14
12
16
6
13
19
12
13
14
19
14
13
16
16
19
16
18
16
17
13
16
18
17
17
18
14
18
10
12
12
18
9
12
9
20
21
8
18
15
17
17
11
6
13
24
14
12
19
14
16
13
21
12
12
11
10
15
11
22
20
17
14
13
9
12
12
23
11
15
16
11
13
17
16
16
23
15
7
10
19
25
25
16
10
8
16
15
16
6
20
83
68
65
60
69
46
65
63
60
49
43
39
60
55
45
46
44
43
52
50
49
44
46
44
37
43
35
35
56
33
36
31
32
38
35
39
24
45
19
32
29
42
32
31
30
43
39
37
41
33
28
17
36
35
27
35
36
27
27
33
27
32
30
22
41
20
35
38
32
39
30
27
37
28
34
31
23
28
33
40
26
26
28
35
36
35
30
36
28
46
26
33
37
35
36
38
29
32
30
31
32
33
25
28
35
33
35
26
34
20
27
41
23
34
25
28
33
31
27
40
158
122
146
114
87
96
83
94
94
81
55
87
75
73
77
66
66
60
47
50
54
42
53
37
47
37
45
49
33
35
34
30
34
30
39
43
34
27
37
35
35
35
24
29
31
27
30
24
23
24
27
19
20
25
25
27
25
33
16
24
22
23
27
20
23
18
31
24
20
26
22
26
25
34
23
16
25
28
19
22
19
25
28
20
12
20
16
26
35
24
23
26
12
20
20
19
20
21
19
14
22
17
19
28
20
19
25
14
21
25
25
26
21
26
14
19
24
22
22
44
164
127
122
125
133
104
95
111
125
94
81
81
94
80
83
92
71
64
68
59
58
64
55
62
66
55
53
53
46
55
53
47
59
44
34
38
32
51
39
36
45
53
27
34
30
42
43
36
34
41
42
27
40
31
47
30
33
34
46
50
32
34
34
31
44
20
29
26
33
36
44
27
40
30
47
27
36
39
15
29
45
30
32
33
25
38
34
33
23
27
29
24
33
26
32
28
37
39
41
36
28
28
25
40
37
31
39
38
35
31
30
25
36
41
36
37
29
40
38
31
19
11
19
13
14
15
9
13
11
11
10
19
15
13
14
18
11
15
19
22
15
7
10
12
14
15
14
17
11
17
15
17
19
15
12
19
20
14
10
10
12
17
14
21
7
15
13
18
9
8
16
13
16
13
13
17
19
16
11
9
16
6
17
12
11
14
20
10
12
17
16
13
8
14
14
10
12
13
9
9
18
18
8
11
17
10
13
19
11
12
10
7
10
13
14
18
22
11
17
8
12
12
15
13
12
17
9
10
13
14
8
10
18
17
19
13
9
8
11
14
17
15
12
11
13
17
21
14
7
16
9
14
13
18
11
15
12
16
10
19
68
78
66
62
73
59
63
68
49
59
54
56
44
68
40
44
44
57
59
34
65
41
35
51
49
37
43
32
59
34
53
45
37
36
38
39
26
36
27
41
35
29
38
40
26
30
30
32
32
39
38
36
31
33
33
20
33
25
29
36
37
37
40
39
32
34
34
36
43
34
34
28
34
24
25
29
28
30
33
16
33
27
33
34
25
41
45
32
31
24
36
28
37
33
23
38
41
35
34
32
33
37
32
31
34
33
31
38
27
22
28
33
33
39
36
43
31
38
34
50
137
135
124
111
95
93
88
99
67
75
81
80
81
66
64
58
53
63
46
62
55
40
35
46
48
32
46
43
48
43
30
46
26
31
30
34
33
40
30
32
36
31
30
25
25
27
31
23
25
29
30
24
23
19
21
27
21
32
31
24
23
34
13
42
20
26
28
27
29
28
19
24
23
18
32
24
20
21
20
21
22
24
15
29
33
20
23
16
11
21
22
23
21
22
20
18
20
26
14
21
23
24
32
22
24
17
18
23
15
21
24
20
33
26
25
25
25
14
16
40
158
126
133
112
134
123
126
98
94
102
91
92
97
79
81
72
60
65
59
48
52
61
49
60
48
46
43
44
42
47
50
46
43
58
41
42
40
46
51
49
37
45
42
48
43
45
31
41
42
35
34
42
41
32
26
33
41
32
40
32
27
33
32
36
30
28
38
39
36
36
34
39
24
38
32
32
34
40
29
27
39
25
28
40
29
26
38
31
34
35
33
29
29
31
34
27
29
23
32
30
46
34
34
42
32
26
35
38
32
30
27
34
29
35
26
35
36
32
30
38
12
15
9
12
13
13
11
23
13
10
16
14
13
9
15
9
12
7
16
12
14
13
9
19
11
12
17
16
12
14
9
13
12
15
11
7
10
18
11
10
12
12
15
17
21
5
10
13
24
22
11
13
6
13
17
12
13
9
13
15
19
15
18
15
12
11
20
15
13
17
19
12
13
8
16
20
17
16
16
10
19
14
15
12
19
16
13
15
10
15
6
8
10
10
18
12
7
11
8
13
10
19
16
15
15
14
13
18
12
19
18
12
14
15
20
13
13
14
14
18
15
10
16
12
20
18
12
18
18
10
13
18
11
22
16
15
10
10
15
14
22
14
21
33
69
71
80
80
65
64
54
48
56
54
46
61
39
51
42
52
54
45
58
45
54
36
35
50
42
47
30
35
36
33
43
33
30
36
35
26
43
31
37
33
45
39
33
36
35
39
26
29
36
31
32
39
28
29
26
37
36
29
25
40
40
41
23
25
29
34
26
43
29
30
28
30
30
36
31
43
43
30
37
36
34
29
28
27
33
47
22
29
29
22
30
22
30
38
25
46
29
21
37
38
27
34
21
32
32
24
24
13
22
30
40
32
33
28
33
31
28
23
30
62
143
121
116
91
108
105
105
97
76
82
63
80
79
89
56
60
59
52
73
45
58
51
51
40
45
45
36
41
39
25
38
32
51
34
28
36
22
30
26
37
43
34
35
19
26
31
32
27
20
26
33
21
19
27
34
18
16
19
28
22
21
23
33
21
27
18
16
20
26
21
17
23
19
25
27
21
20
19
23
24
23
18
26
24
21
31
25
24
23
21
28
20
19
18
19
14
24
26
18
23
21
23
21
20
16
23
22
27
26
21
19
20
24
18
21
23
19
28
20
54
165
128
106
117
107
102
102
101
99
104
87
74
61
82
72
79
71
62
65
59
61
71
53
55
55
58
58
49
64
52
50
59
51
44
49
41
44
46
41
42
39
27
34
45
46
44
31
34
45
43
36
28
27
35
22
38
35
37
40
42
27
34
26
29
34
38
28
27
28
26
46
40
31
40
35
38
30
40
46
28
31
26
31
30
27
33
29
34
26
19
30
34
23
27
33
29
34
37
42
32
30
27
38
43
37
24
34
37
30
38
36
41
29
36
36
37
28
38
32
32
16
14
11
12
12
8
16
8
8
13
13
12
14
14
14
11
24
12
17
9
14
10
20
16
14
5
15
16
14
16
11
19
16
15
14
9
19
17
11
10
13
16
15
15
17
14
16
13
18
8
12
14
14
16
15
11
14
21
16
16
21
16
20
16
17
11
15
14
16
14
20
10
15
15
14
14
19
25
17
16
10
10
14
12
10
8
16
10
13
13
15
10
15
16
13
23
10
15
10
14
12
11
19
14
8
13
10
16
14
12
15
10
16
9
15
15
8
13
10
18
16
16
10
9
18
14
12
9
18
13
13
16
13
12
10
21
19
9
11
13
7
12
9
13
16
17
14
32
100
76
78
59
69
56
58
44
53
64
67
64
62
65
63
49
49
41
55
38
24
50
46
45
33
37
35
32
48
42
44
43
29
28
39
43
50
33
40
28
28
28
45
30
32
40
36
38
33
28
32
29
31
29
32
38
35
28
24
38
48
29
30
25
34
37
39
30
25
30
33
31
27
28
32
40
35
39
26
28
34
24
29
36
27
37
28
34
26
30
21
37
29
39
34
28
29
31
33
29
31
24
18
34
28
38
35
42
30
27
29
39
33
35
37
42
31
38
33
62
157
105
112
125
89
78
88
88
71
96
65
76
49
67
61
55
55
64
70
52
50
48
49
46
52
37
34
42
39
34
42
32
34
39
31
36
33
37
39
34
33
27
33
27
32
33
22
26
33
27
31
19
21
25
23
35
17
16
18
27
20
21
24
20
30
23
27
29
20
18
29
15
22
27
23
19
19
32
20
22
22
17
21
22
21
26
17
30
28
15
23
15
20
20
20
18
22
17
24
23
18
16
25
21
17
18
18
18
28
28
16
20
25
17
18
15
19
22
21
49
163
117
118
119
116
108
80
118
91
86
82
77
66
84
91
62
65
80
66
56
83
69
58
55
56
54
64
64
46
35
41
40
46
43
42
42
37
43
37
43
47
45
32
25
45
33
33
35
37
33
38
37
29
33
28
43
39
36
40
28
32
28
31
38
34
27
36
31
31
38
28
26
32
35
33
33
41
38
34
30
34
36
30
31
36
31
33
31
43
29
38
37
28
41
33
27
39
30
27
35
33
30
25
24
37
29
24
33
38
27
33
30
28
29
26
29
39
33
37
35
11
18
10
15
11
9
10
19
15
10
15
15
14
10
8
14
17
17
15
8
16
11
15
17
12
10
16
17
10
12
9
10
13
14
13
9
9
16
12
15
14
16
14
13
13
12
13
11
14
11
15
17
12
6
21
11
17
19
15
12
8
14
16
19
13
13
19
18
14
22
9
16
20
10
13
16
15
18
6
12
13
16
12
19
13
20
20
10
24
14
15
12
16
17
10
17
15
12
8
14
8
17
9
31
12
12
21
6
18
13
13
22
21
11
16
11
9
16
9
19
9
10
16
11
20
13
12
14
11
11
18
7
14
10
13
18
14
16
16
14
10
14
16
14
18
13
12
17
15
13
13
17
74
49
67
73
66
60
54
49
67
48
53
52
55
53
62
36
41
51
54
45
31
47
44
41
37
45
40
31
41
31
32
43
41
31
34
36
38
35
28
27
38
36
30
27
33
39
32
29
40
43
32
32
33
31
48
38
37
39
33
33
38
34
45
36
41
28
28
35
41
35
41
34
37
30
25
30
31
38
32
32
32
37
30
30
30
34
45
38
24
30
30
36
41
38
25
32
37
31
29
31
30
22
44
24
25
29
29
30
27
38
37
35
34
35
36
31
26
35
23
54
131
134
137
133
108
82
86
91
100
92
59
87
71
69
59
59
59
61
56
58
52
66
50
62
56
50
31
37
35
30
43
33
38
31
29
36
25
28
30
35
30
25
31
29
26
31
22
23
21
16
30
14
18
15
24
27
31
28
27
23
34
25
22
15
21
31
22
15
19
26
23
24
30
23
25
23
26
16
30
24
29
21
23
22
23
22
16
25
12
29
21
17
24
17
26
20
22
20
14
19
28
20
15
18
12
24
28
28
22
9
16
20
27
29
22
12
19
17
19
35
172
141
119
122
111
111
110
118
99
77
114
95
98
72
77
73
55
67
61
81
57
55
58
69
61
50
54
53
67
53
59
47
33
54
47
36
36
42
44
33
43
35
36
30
40
39
31
28
39
38
40
34
38
35
30
34
38
46
29
32
32
37
29
30
28
32
28
20
40
36
28
40
31
35
23
43
31
31
34
34
23
28
33
35
42
23
26
39
33
24
31
28
32
38
29
16
42
35
27
24
25
29
37
40
35
33
33
39
31
35
33
26
29
35
36
31
39
28
29
25
17
10
11
12
18
18
19
13
16
16
14
23
13
11
7
11
16
12
16
21
14
14
17
13
18
15
23
14
8
18
13
13
13
25
16
16
10
12
10
6
12
17
11
13
13
15
9
12
22
12
8
17
12
16
18
14
14
17
21
5
14
13
15
17
13
18
18
13
10
11
17
12
8
23
18
11
12
14
19
19
18
18
10
11
12
10
4
14
11
12
13
12
9
12
12
19
13
18
18
11
12
14
18
18
15
6
20
12
19
12
6
15
14
12
21
14
15
10
10
10
7
11
11
16
13
16
7
9
15
11
14
11
11
18
13
17
17
12
12
12
13
10
13
19
16
16
9
14
21
14
10
26
15
11
18
30
87
84
80
55
66
73
71
58
66
67
71
54
48
48
47
43
48
52
51
52
48
34
39
39
42
44
41
39
40
31
40
40
43
34
35
24
37
32
35
35
44
41
24
38
33
41
30
38
42
27
37
45
31
40
42
30
27
33
41
37
40
32
32
36
38
44
38
30
28
34
18
40
25
39
30
37
29
29
40
25
27
36
37
32
28
40
27
31
21
33
42
30
29
28
31
33
29
33
33
23
35
35
39
30
36
37
31
29
29
38
38
35
25
36
37
36
27
33
32
32
11
13
13
10
11
8
9
10
23
10
8
7
13
5
15
9
9
7
16
19
12
17
9
12
14
7
7
15
9
7
13
20
7
15
7
16
8
12
7
10
16
10
5
10
17
13
15
10
4
15
11
6
14
14
13
8
9
12
15
8
8
14
9
11
10
5
7
7
6
12
11
12
9
7
19
8
10
7
6
9
11
13
12
8
11
7
14
13
14
7
8
14
9
9
10
11
6
13
12
13
8
6
11
4
7
7
6
14
11
12
14
9
13
10
10
9
5
9
10
5
9
7
17
12
11
8
10
8
8
16
11
8
8
16
9
7
7
11
9
11
8
19
7
10
7
12
8
10
11
19
10
9
10
10
7
14
17
12
12
10
13
12
11
10
9
15
10
15
10
12
10
14
8
9
14
11
14
6
6
11
18
10
11
12
6
8
9
11
