#Saved Data from the class pulsed_measurement_logic on 18.11.2022 at 10h32m06s.
#
#Parameters:
#===========
#
#bin width (s): 5.0000000000000001e-09
#record length (s): 1.0025000000000000e-05
#gated counting: False
#Number of laser pulses: 2
#alternating: False
#Controlled variable: [2e-06]
#
#Data:
#=====
#Signal(counts)
0
0
0
0
1
0
0
1
1
0
1
0
1
0
0
1
0
0
0
0
0
0
1
1
0
1
0
0
0
0
0
0
0
2
0
1
0
0
0
0
1
0
1
1
0
0
0
2
10
27
30
37
39
40
32
29
31
18
22
32
23
29
22
26
23
23
18
18
16
30
22
17
30
21
16
21
18
21
17
23
17
23
20
10
22
12
22
12
15
21
22
11
10
13
16
15
12
12
14
13
11
16
9
15
13
17
13
19
10
13
11
15
13
17
15
11
12
15
10
16
10
14
10
20
15
7
13
10
5
8
14
10
6
8
11
11
9
14
10
11
5
6
7
5
16
9
4
8
7
11
10
16
8
4
10
12
9
10
8
11
11
9
10
10
6
5
14
9
6
9
11
9
9
12
5
5
10
6
9
7
14
11
9
7
3
6
10
10
5
7
11
12
9
7
15
6
10
10
8
8
8
8
4
12
14
6
6
5
13
8
10
10
5
7
7
7
5
7
9
11
7
14
3
9
11
6
4
7
12
14
10
6
7
9
9
9
5
5
6
10
8
7
6
5
7
8
11
7
11
14
7
8
16
15
8
10
5
8
11
10
12
9
3
7
16
4
10
5
7
7
6
9
6
11
7
14
6
10
14
8
6
12
11
11
10
6
15
6
11
8
8
6
10
3
6
11
13
4
6
6
5
11
14
10
8
8
12
9
10
5
6
5
2
6
9
8
11
2
10
7
5
10
8
11
8
9
6
11
9
6
13
15
10
7
8
7
8
8
9
12
12
2
9
5
14
11
4
3
11
10
8
13
10
10
8
5
4
10
10
7
11
3
7
9
7
8
7
4
9
10
10
8
10
17
10
10
9
9
7
6
15
10
9
12
9
6
6
9
7
7
6
10
13
11
8
6
4
12
9
5
11
10
5
10
12
9
5
8
9
10
11
9
12
8
7
9
11
10
10
6
8
6
13
11
5
12
10
8
11
7
5
8
5
12
9
12
9
9
4
10
6
6
7
8
6
9
9
8
9
9
2
4
1
0
0
0
0
1
0
1
0
0
3
0
0
0
0
0
0
0
1
0
0
0
0
0
0
0
2
1
1
2
0
0
3
0
2
0
1
0
2
0
0
0
0
1
0
0
1
0
0
1
1
0
0
0
0
1
0
1
0
1
0
0
0
0
0
0
0
0
0
0
0
1
0
1
0
0
1
1
1
1
1
0
0
0
0
0
0
0
1
1
1
1
0
2
0
0
0
1
0
3
0
0
0
0
1
0
0
1
0
1
0
1
0
0
1
0
0
0
0
0
1
0
0
0
1
0
1
0
0
0
1
1
0
0
0
0
0
0
2
0
0
0
0
0
0
1
0
0
1
1
1
0
0
2
0
0
1
0
1
1
0
2
0
2
0
0
1
1
0
1
0
1
1
0
0
0
1
1
1
0
0
2
1
0
1
1
1
0
0
0
1
0
2
0
1
0
1
1
0
0
0
0
0
0
0
0
1
1
1
2
0
0
2
1
0
1
1
0
0
1
0
0
0
2
0
1
0
0
0
0
0
1
0
0
0
1
0
1
1
0
0
3
0
0
0
0
0
1
1
2
0
0
2
1
0
1
0
0
1
1
2
2
0
0
0
0
0
1
2
2
1
0
0
0
1
0
0
0
0
1
0
0
1
0
0
0
0
0
0
0
0
1
1
1
0
0
0
1
1
0
1
0
0
0
0
2
0
1
1
1
1
0
0
1
0
0
2
2
0
1
1
0
0
1
1
0
0
1
0
0
1
0
0
0
2
0
0
0
0
0
1
2
1
2
0
0
1
0
0
0
0
0
1
1
0
1
2
0
0
1
1
0
1
1
1
1
2
0
0
1
0
1
1
0
1
0
1
0
0
0
1
0
0
0
0
0
1
1
0
0
0
0
1
0
2
0
0
2
0
1
7
30
22
25
28
38
25
37
30
21
23
21
27
26
30
38
25
15
26
15
20
27
30
25
20
25
15
20
10
17
16
17
29
18
22
16
26
19
17
15
11
17
12
12
15
17
10
6
14
11
17
10
11
9
16
11
10
16
11
15
16
6
14
8
14
12
9
9
16
12
5
14
12
12
16
12
13
9
9
3
7
8
13
6
7
6
8
13
11
8
14
13
12
15
9
12
11
11
8
6
15
7
6
15
14
8
9
11
8
13
14
9
8
9
9
9
9
7
14
6
8
8
11
9
9
7
8
11
11
6
7
7
13
8
10
9
7
5
9
10
6
8
8
4
8
10
10
7
7
6
11
9
4
4
12
13
9
3
11
10
13
7
9
9
8
17
4
11
8
13
4
8
10
14
11
5
8
7
5
7
9
7
10
8
8
7
7
9
9
8
10
12
8
12
15
12
10
10
8
6
6
17
9
10
12
5
15
6
6
7
10
8
11
10
11
10
12
8
10
9
9
8
7
15
6
14
7
8
10
8
3
7
13
2
9
8
9
2
8
8
9
7
6
6
15
7
10
11
5
8
9
4
9
4
12
12
15
5
8
7
13
7
11
9
14
7
8
10
10
8
9
9
6
11
9
4
12
11
5
4
5
9
8
9
11
11
7
11
7
17
5
6
11
12
8
10
5
5
10
10
7
12
7
12
9
9
7
6
5
7
8
6
10
12
11
4
6
8
10
6
9
4
8
10
13
3
11
6
7
8
11
10
11
13
9
13
8
7
10
7
7
9
7
14
6
8
10
8
13
7
14
8
9
7
5
10
7
9
9
8
6
6
11
4
6
6
5
11
10
5
12
4
9
6
14
7
15
7
8
6
13
12
12
4
3
7
5
13
9
6
5
10
9
8
12
9
8
2
0
0
1
1
0
0
0
1
0
0
0
0
0
0
0
0
1
1
2
0
0
0
0
0
0
1
0
1
1
0
0
0
0
0
2
1
0
1
0
1
0
1
3
0
1
1
0
1
0
1
1
0
0
0
1
0
1
1
1
1
1
0
0
2
0
2
0
0
0
3
3
0
1
0
1
0
0
0
1
1
1
0
0
0
0
1
0
0
0
1
2
0
0
0
4
2
2
0
0
0
0
0
0
0
0
1
1
0
0
0
2
2
1
0
0
2
0
0
0
0
0
0
0
0
3
0
1
0
1
1
0
0
0
0
2
0
1
0
1
1
1
0
0
2
1
0
1
3
1
1
0
2
0
0
1
1
0
0
0
0
1
0
1
0
0
0
0
1
0
0
0
1
2
0
1
0
1
0
1
0
2
1
0
1
1
0
0
1
1
0
1
0
0
0
0
2
0
1
0
0
0
1
0
0
0
2
0
1
0
0
1
0
0
0
0
0
2
0
0
0
0
2
1
1
1
0
1
0
0
1
0
1
0
0
1
0
1
0
0
1
0
0
1
0
0
0
0
0
1
0
1
0
1
0
2
0
0
0
0
0
0
0
0
0
1
0
0
0
0
0
0
0
1
1
0
0
0
0
0
0
1
0
1
3
0
1
0
0
1
0
1
1
0
0
1
1
0
0
1
0
0
0
0
0
0
0
1
1
1
0
1
0
0
0
0
0
0
0
1
0
0
0
0
0
0
0
0
1
1
0
1
0
0
2
0
1
0
0
1
0
1
1
1
0
0
0
0
0
0
0
1
1
0
1
0
0
0
1
0
2
1
0
2
0
2
0
1
1
0
1
2
1
0
0
1
0
0
1
0
0
1
0
1
1
1
2
0
0
0
1
1
0
3
1
0
0
1
0
0
0
0
1
0
0
1
1
1
2
1
1
1
0
1
1
0
0
0
0
2
0
0
0
0
0
0
1
0
0
0
1
1
1
1
0
0
1
0
1
0
1
0
1
0
0
0
0
0
1
0
0
1
1
0
2
2
0
2
0
0
0
2
0
0
0
0
1
0
0
0
1
1
0
0
2
1
1
0
1
1
1
0
0
0
1
1
1
0
1
1
1
2
0
0
0
0
0
1
0
0
1
2
1
0
0
1
0
0
0
0
0
0
1
0
1
1
2
1
1
0
1
0
2
2
1
0
1
0
1
0
0
1
0
0
0
0
1
0
1
0
0
0
2
0
0
1
0
0
2
0
0
0
0
0
0
2
0
0
0
2
0
0
0
1
0
1
0
0
0
0
0
0
0
0
0
1
0
0
0
1
1
2
0
0
0
0
0
0
1
0
0
0
2
0
0
3
0
0
0
1
0
0
3
0
0
0
0
0
1
1
0
1
0
0
0
1
1
1
0
0
1
0
0
0
0
1
1
2
0
0
0
2
0
1
0
0
1
0
0
1
0
0
0
1
1
0
2
0
0
1
0
0
3
0
0
0
1
0
0
1
0
2
0
0
0
0
0
1
0
1
2
0
0
1
0
0
0
1
0
0
0
0
1
1
0
0
0
0
0
0
0
1
1
1
1
0
2
2
0
1
1
0
0
1
1
0
0
0
1
1
0
0
0
0
1
0
0
1
0
0
0
2
0
0
1
0
0
1
0
2
1
0
0
1
0
0
0
0
0
1
0
0
3
2
0
3
1
3
0
0
1
1
0
0
0
0
