#Saved Data from the class pulsed_measurement_logic on 18.11.2022 at 10h51m30s.
#
#Parameters:
#===========
#
#bin width (s): 1.0000000000000000e-08
#record length (s): 1.0030000000000001e-05
#gated counting: False
#Number of laser pulses: 2
#alternating: False
#Controlled variable: [2e-06]
#
#Data:
#=====
#Signal(counts)
0
1
2
0
3
2
1
4
2
2
1
0
1
1
2
1
2
3
1
1
1
1
1
3
30
55
54
60
66
54
76
53
48
45
54
47
46
47
37
37
39
39
34
41
31
32
31
36
30
28
31
24
33
34
20
23
36
32
27
27
25
26
21
25
17
26
26
23
22
25
25
18
26
19
17
26
28
16
20
19
15
26
20
14
26
23
20
14
25
19
23
15
18
30
16
21
22
24
19
14
24
19
23
23
29
15
19
18
20
11
26
15
17
22
20
14
16
17
21
27
17
23
23
19
11
26
25
20
23
16
22
18
15
29
20
25
26
22
17
8
20
18
22
15
18
19
19
18
24
22
17
14
17
23
18
19
18
13
9
18
17
21
17
18
24
17
18
18
20
32
23
17
10
15
14
21
15
17
17
23
22
20
19
13
19
23
23
24
28
20
11
18
21
18
17
15
18
27
13
22
29
16
17
19
25
22
26
24
20
23
22
21
20
18
26
14
23
19
12
14
14
20
9
16
26
10
2
5
1
1
2
2
1
1
0
1
1
2
3
0
0
3
2
3
0
1
2
3
0
0
3
0
0
0
4
0
1
4
1
0
1
0
2
4
0
0
0
0
0
3
0
3
0
1
1
6
1
2
1
0
2
2
2
0
1
0
2
2
1
2
2
0
1
3
2
1
1
1
1
0
4
2
1
0
1
0
4
2
1
0
1
0
1
3
2
0
4
2
0
0
2
1
1
1
1
1
3
1
0
1
0
2
2
1
0
2
1
1
4
1
1
2
2
0
2
1
1
1
1
3
1
1
0
2
2
0
2
1
0
0
3
1
3
0
1
2
1
0
3
2
1
1
0
0
1
3
2
4
2
4
2
3
1
2
0
1
1
0
2
1
1
3
4
0
1
0
2
0
1
0
1
1
1
2
2
3
2
1
0
1
2
2
2
2
0
1
4
2
3
0
0
5
1
2
2
3
32
64
51
54
52
58
44
52
47
55
57
41
36
52
35
33
46
43
31
38
33
29
32
26
30
24
26
38
33
27
34
24
36
30
23
23
25
29
28
26
29
28
27
21
24
28
25
17
22
22
23
24
29
18
26
16
22
24
22
23
25
16
25
20
23
19
25
19
15
26
18
17
20
16
23
17
27
17
23
16
16
17
12
19
20
22
21
16
23
19
16
9
20
14
15
19
27
31
21
23
13
18
18
16
13
23
20
20
23
21
19
15
14
25
19
17
16
15
24
27
7
18
16
23
27
22
22
25
20
18
15
14
17
20
24
16
19
8
10
15
23
22
20
18
22
24
18
20
24
18
17
17
23
16
16
14
22
24
16
13
19
16
21
29
25
22
18
20
17
16
13
18
14
18
16
20
21
16
16
16
13
8
23
10
10
24
18
20
28
25
20
22
19
19
18
21
18
25
16
2
3
0
1
3
0
3
0
1
5
1
2
2
2
0
1
2
1
1
2
1
1
1
1
3
1
1
1
1
3
3
3
1
2
1
0
2
4
1
4
1
2
0
2
0
1
2
2
2
0
1
1
1
1
0
0
0
2
0
2
0
2
1
1
2
1
0
0
1
0
3
3
1
2
1
1
2
2
0
3
3
1
1
3
2
3
1
0
0
1
1
1
2
1
0
0
2
1
2
3
3
1
2
1
1
1
1
0
3
0
1
1
0
1
3
2
0
1
1
1
0
1
1
1
4
0
5
0
2
1
0
2
0
0
3
0
1
1
1
1
0
0
1
2
1
4
0
2
0
2
0
4
1
0
2
1
1
1
2
1
1
0
1
0
0
0
1
0
1
1
0
0
4
3
3
1
0
0
2
1
1
2
3
2
0
2
1
2
0
3
3
1
2
0
3
0
3
4
1
1
2
3
1
1
3
3
3
0
2
2
2
2
2
0
0
1
3
1
1
0
2
2
2
3
2
2
2
2
1
0
1
1
2
1
1
1
2
2
0
1
1
1
0
2
2
4
2
2
4
0
1
2
1
3
0
1
4
1
2
6
0
1
0
2
1
0
1
0
1
1
2
1
1
0
4
1
2
1
1
1
2
0
3
0
1
0
2
1
2
0
2
0
0
4
2
0
0
1
1
1
3
0
1
0
2
0
3
1
1
3
0
1
0
2
1
1
0
0
3
1
1
0
2
2
1
4
0
0
1
1
2
2
2
1
0
1
2
7
0
1
2
2
1
1
3
1
0
3
1
1
1
2
1
2
3
1
2
2
0
1
1
0
2
3
4
1
1
0
1
1
3
1
1
0
1
1
0
1
