#Saved Data from the class pulsed_measurement_logic on 18.11.2022 at 13h47m14s.
#
#Parameters:
#===========
#
#bin width (s): 5.0000000000000001e-09
#record length (s): 3.7030000000000003e-05
#gated counting: False
#Number of laser pulses: 60
#alternating: False
#Controlled variable: [4720000000.0, 4720500000.0, 4721000000.0, 4721500000.0, 4722000000.0, 4722500000.0, 4723000000.0, 4723500000.0, 4724000000.0, 4724500000.0, 4725000000.0, 4725500000.0, 4726000000.0, 4726500000.0, 4727000000.0, 4727500000.0, 4728000000.0, 4728500000.0, 4729000000.0, 4729500000.0, 4730000000.0, 4730500000.0, 4731000000.0, 4731500000.0, 4732000000.0, 4732500000.0, 4733000000.0, 4733500000.0, 4734000000.0, 4734500000.0, 4735000000.0, 4735500000.0, 4736000000.0, 4736500000.0, 4737000000.0, 4737500000.0, 4738000000.0, 4738500000.0, 4739000000.0, 4739500000.0, 4740000000.0, 4740500000.0, 4741000000.0, 4741500000.0, 4742000000.0, 4742500000.0, 4743000000.0, 4743500000.0, 4744000000.0, 4744500000.0, 4745000000.0, 4745500000.0, 4746000000.0, 4746500000.0, 4747000000.0, 4747500000.0, 4748000000.0, 4748500000.0, 4749000000.0, 4749500000.0]
#
#Data:
#=====
#Signal(counts)
3
4
2
4
4
4
2
3
2
7
3
3
3
6
5
3
5
28
34
42
49
54
48
45
34
30
58
54
53
57
53
49
43
58
43
47
45
44
47
34
46
46
38
38
50
47
49
41
39
38
43
44
47
48
65
55
50
39
50
44
44
39
45
45
48
42
54
38
38
53
34
50
47
50
40
48
38
16
21
16
7
15
4
14
12
8
13
7
11
5
11
5
9
12
12
10
14
4
5
9
5
8
7
6
7
10
5
11
10
8
4
9
8
6
5
7
4
10
7
1
7
4
4
14
5
7
7
4
9
3
7
12
2
4
2
5
12
45
45
41
35
55
39
45
44
52
48
45
47
54
40
37
43
47
57
58
48
52
44
52
37
43
47
38
39
45
46
48
41
51
54
46
56
39
48
53
38
50
43
63
49
51
54
43
51
46
40
47
39
43
42
51
44
48
64
50
33
22
9
14
13
4
7
9
9
7
6
13
7
6
8
6
11
11
4
9
11
11
6
6
1
5
7
9
8
9
6
5
6
10
3
7
10
5
8
6
7
8
13
8
6
12
12
9
11
3
9
12
6
9
7
8
7
5
8
9
11
41
44
42
53
59
43
40
44
47
45
55
36
49
40
64
54
39
41
46
53
38
46
48
53
43
44
50
41
33
51
39
45
54
56
57
52
51
41
46
49
44
44
50
51
56
45
49
51
47
49
49
32
48
51
54
44
41
32
54
35
18
11
13
12
16
22
10
7
7
11
8
9
9
7
7
6
7
8
9
11
3
7
1
7
7
11
8
10
5
8
12
7
7
14
5
6
7
6
5
11
8
8
5
11
10
4
7
3
6
8
4
11
1
8
10
3
14
8
11
10
37
41
47
48
51
30
51
49
56
40
53
41
53
59
40
47
40
58
37
43
42
65
54
58
44
40
54
54
49
44
50
59
47
48
54
44
51
52
54
50
31
57
45
56
51
31
53
49
39
53
51
58
37
61
49
34
43
45
55
38
15
11
10
23
18
8
10
10
13
11
12
9
7
7
4
11
2
9
5
8
9
10
6
7
9
4
8
5
8
4
9
4
3
7
12
7
6
4
6
15
8
10
7
5
6
9
8
10
3
10
2
8
5
7
9
5
9
8
5
8
36
33
39
41
48
51
56
48
42
40
48
56
48
58
35
36
51
48
54
49
47
34
51
41
35
44
41
52
54
44
45
49
49
43
45
51
55
37
51
49
52
57
54
39
44
48
45
51
58
52
58
37
56
49
47
38
47
41
48
40
19
20
18
16
12
16
7
8
9
6
3
16
12
13
12
6
6
6
10
9
4
8
6
6
9
14
4
8
6
5
6
8
5
10
9
4
6
11
4
11
8
8
3
9
6
9
3
7
9
6
5
9
7
5
11
6
8
8
9
8
40
35
31
45
49
72
45
34
54
54
45
41
53
37
52
56
64
45
50
53
48
62
40
48
50
34
49
43
53
48
43
60
49
54
40
45
39
39
50
38
51
62
48
49
47
53
44
35
54
48
48
55
40
55
45
43
45
50
58
39
26
12
17
12
21
9
12
11
10
12
8
7
5
6
9
7
5
8
8
9
5
7
11
8
6
11
4
7
7
10
5
9
3
6
3
8
7
8
7
8
6
7
4
7
10
11
3
8
5
6
10
6
5
4
4
6
6
2
6
8
34
42
34
37
55
64
58
44
47
58
48
59
41
39
52
50
40
46
49
40
58
40
47
44
47
45
55
44
43
48
41
47
42
49
53
38
43
53
44
49
48
35
47
54
44
61
57
52
46
43
49
45
41
49
50
53
42
42
60
34
26
20
21
14
16
11
12
9
8
8
10
6
9
10
8
13
8
7
11
9
7
3
12
6
10
4
6
9
10
10
4
7
12
10
1
7
8
6
11
7
7
8
10
2
4
13
2
7
7
7
3
5
3
7
10
8
10
6
11
13
40
39
51
40
58
42
46
57
60
38
45
56
37
42
53
49
54
48
48
43
41
49
51
56
50
54
53
65
37
36
54
44
41
49
50
70
44
53
63
47
33
54
50
55
39
64
47
48
44
53
65
56
46
53
50
58
41
34
60
39
16
24
6
18
23
11
15
9
9
14
8
9
9
4
8
12
11
5
13
5
7
5
8
6
8
7
11
7
9
8
8
7
5
4
7
5
5
5
5
3
8
7
6
11
3
8
10
4
5
8
5
5
9
9
8
12
5
10
7
13
33
49
43
40
49
60
54
46
56
43
57
50
52
47
47
48
59
56
41
42
62
38
42
43
46
50
53
52
55
42
48
50
48
55
47
58
48
47
45
52
41
45
43
54
51
54
45
51
44
58
47
42
48
47
41
43
53
52
46
44
30
22
20
17
11
11
14
10
10
12
11
7
8
10
9
8
12
6
12
6
7
6
4
10
8
4
4
8
8
7
6
6
3
12
11
4
8
7
7
6
3
5
6
2
6
1
6
9
9
8
7
4
5
7
12
6
7
8
5
8
39
37
27
46
47
50
51
60
52
48
38
49
51
55
51
60
52
49
68
65
44
57
45
40
53
39
49
37
52
35
53
60
53
40
54
58
45
59
50
38
57
63
46
40
53
50
51
60
53
55
41
60
54
49
53
53
50
55
65
30
21
21
9
10
13
13
7
9
4
10
7
7
9
4
10
8
8
5
7
7
7
9
5
7
7
9
8
7
3
10
10
7
16
13
6
3
7
9
6
8
4
6
5
11
7
6
4
6
6
7
6
5
6
5
6
10
8
7
10
7
48
42
39
39
50
56
71
51
41
52
59
44
45
51
63
49
47
52
55
42
50
50
50
55
52
47
56
62
40
54
48
50
50
54
44
44
56
36
46
64
53
57
49
54
48
49
60
39
58
46
69
43
48
39
42
43
55
42
57
41
17
18
23
20
18
18
7
8
9
11
13
6
13
15
7
9
7
6
4
6
4
17
6
6
7
6
8
9
6
8
5
2
7
8
4
5
6
3
5
6
9
9
8
10
6
10
8
1
9
8
5
5
8
7
9
7
11
8
6
12
39
39
46
44
48
51
63
59
56
50
49
47
48
52
57
58
52
50
53
57
50
46
45
55
55
53
46
37
58
54
57
56
47
54
47
60
55
48
38
38
37
45
43
43
44
49
43
55
59
43
48
48
50
54
53
54
46
49
60
36
25
19
19
16
19
9
10
11
12
9
10
11
8
13
7
8
8
9
6
7
12
7
4
8
3
8
7
7
9
4
2
2
3
5
9
11
5
10
8
11
11
12
5
9
5
6
8
5
7
8
5
5
4
5
10
6
7
2
6
9
37
37
63
43
52
49
56
56
67
55
51
43
64
44
55
60
46
56
51
43
50
58
59
64
48
59
45
53
48
44
63
52
53
57
40
57
48
53
49
50
44
53
64
62
67
38
56
57
47
47
50
54
57
60
61
51
50
51
40
45
17
18
14
14
19
20
10
18
7
15
13
15
10
7
6
7
10
8
11
6
11
7
5
6
11
8
7
5
6
9
6
6
6
9
11
7
8
8
7
7
10
8
4
9
9
7
7
8
4
7
5
8
8
2
8
11
4
9
10
15
28
36
35
52
42
58
66
56
56
67
56
54
54
52
35
51
59
58
67
58
60
46
58
51
45
57
65
62
51
49
47
53
51
48
47
58
49
47
66
49
57
60
64
69
56
66
49
46
36
60
54
51
59
58
52
40
35
69
46
47
31
22
20
20
13
17
9
9
11
15
4
3
12
7
6
7
4
10
10
11
9
9
9
3
9
5
9
4
12
9
8
8
5
5
4
8
11
7
5
6
6
3
7
3
8
5
9
7
3
9
6
8
5
9
8
4
4
2
9
12
40
38
27
44
44
45
54
55
64
54
72
48
66
50
47
42
60
47
64
56
64
44
60
61
65
57
41
71
58
54
51
55
61
41
57
57
60
53
46
67
72
60
52
66
54
57
63
60
48
55
69
55
50
54
50
57
50
51
48
44
31
38
24
25
11
20
14
13
12
12
14
10
7
8
11
6
12
12
6
5
9
6
6
4
10
9
6
9
9
8
8
3
9
10
7
2
8
7
8
8
4
7
6
13
7
5
6
10
8
7
11
4
9
5
8
7
6
9
6
4
49
42
37
30
63
54
52
61
58
49
50
48
65
42
62
48
65
46
54
43
52
61
50
60
58
51
53
55
50
47
56
52
50
48
49
33
55
57
54
45
37
52
50
64
53
43
48
43
48
58
55
56
51
55
59
57
46
57
47
42
26
25
17
26
15
12
18
11
8
8
9
12
13
6
6
6
11
11
5
9
6
7
7
5
9
4
9
2
12
6
7
10
3
9
6
9
10
7
8
3
8
6
10
4
13
5
5
2
8
6
7
7
7
10
8
3
9
5
9
16
36
34
29
36
48
54
53
59
63
65
48
58
60
60
55
70
60
56
50
54
52
39
54
58
47
56
52
53
52
44
56
60
42
37
43
62
45
65
47
68
53
42
54
47
51
45
48
46
53
48
49
59
55
44
43
59
36
58
58
41
28
28
33
25
21
15
18
13
11
15
5
10
12
10
12
7
8
6
9
8
12
6
15
2
8
7
10
5
8
6
6
5
6
10
6
10
6
5
9
4
5
11
8
7
8
11
12
7
8
7
5
6
7
4
6
4
8
6
6
18
50
30
45
40
36
48
60
63
42
62
53
50
52
55
69
47
40
50
58
56
52
51
58
50
67
53
43
52
50
61
47
44
57
57
44
61
38
37
53
60
57
45
56
51
68
63
42
70
41
61
53
55
50
57
52
40
52
55
48
42
21
20
19
22
35
17
18
7
19
7
10
14
16
4
6
15
9
10
5
9
11
7
6
7
11
4
6
5
4
8
7
4
12
5
10
4
17
7
3
7
9
3
7
5
5
9
9
7
12
10
9
7
7
3
7
6
6
7
5
8
41
44
45
41
35
45
57
55
57
61
66
43
49
44
62
53
48
57
73
58
62
47
51
52
51
65
50
60
52
48
41
50
49
65
50
56
72
47
39
52
44
46
57
50
47
58
61
45
62
55
59
56
45
51
51
48
65
56
51
35
30
38
36
23
15
29
8
16
16
12
21
16
10
10
6
7
5
9
10
8
10
7
11
12
10
8
11
5
3
9
8
10
10
9
3
9
5
3
6
10
4
8
6
14
5
5
6
8
3
7
10
5
5
6
3
3
7
4
5
8
41
47
31
35
42
46
36
50
52
54
43
59
61
41
54
45
48
55
60
43
55
47
64
38
49
53
59
42
50
47
52
51
62
37
51
37
50
61
53
56
47
45
50
46
39
51
56
47
44
46
46
42
48
47
36
52
48
57
47
44
30
47
36
25
20
15
15
21
19
8
10
11
18
10
8
5
7
7
7
17
5
6
3
8
10
8
9
8
6
9
9
5
5
7
4
7
4
6
8
12
7
10
8
4
14
10
4
10
7
8
7
8
11
6
2
10
7
4
3
7
43
50
44
36
46
46
34
54
46
51
55
47
54
48
54
41
50
49
42
59
36
40
48
44
37
50
54
59
50
45
41
52
51
61
51
33
47
52
58
40
43
49
59
56
57
44
51
64
57
46
55
55
37
51
49
46
59
50
38
39
35
36
19
35
17
21
28
12
17
12
10
17
9
10
7
14
8
8
10
8
6
8
8
8
5
2
7
5
5
7
8
6
8
8
4
7
11
12
3
9
10
6
6
8
5
9
8
10
13
6
9
8
14
4
7
8
5
8
7
13
42
34
32
33
36
36
38
38
38
33
47
48
42
41
34
51
52
36
50
49
54
44
47
49
42
36
36
59
35
41
45
40
45
38
50
50
56
60
54
58
56
47
46
44
54
37
47
39
49
44
49
56
55
59
56
52
38
51
51
37
43
48
35
27
26
20
24
8
16
16
18
9
15
15
12
15
7
7
12
9
8
11
11
4
3
3
6
4
6
9
5
6
5
9
3
12
8
10
10
6
11
5
6
4
3
1
10
12
6
5
1
4
3
4
5
9
4
8
8
15
38
46
29
27
39
31
41
47
45
34
31
53
32
41
38
36
45
42
51
46
37
42
41
36
54
36
41
51
44
49
52
37
66
39
42
46
35
50
56
44
43
41
51
55
43
43
43
52
46
32
39
31
46
41
50
48
36
43
47
32
41
46
33
23
27
19
25
25
17
14
17
11
8
6
11
6
7
10
3
5
7
14
9
16
5
4
10
9
9
4
4
7
6
7
3
9
6
12
12
4
4
9
8
15
4
16
8
3
5
7
9
3
9
4
5
6
8
5
6
6
57
42
42
27
51
28
26
30
39
34
30
40
38
37
33
40
41
45
46
43
21
31
45
41
44
44
34
43
38
41
24
32
44
37
42
54
49
43
40
33
51
39
43
26
43
37
50
38
35
37
33
61
38
47
39
48
47
32
31
30
41
41
44
42
34
21
11
21
27
20
9
12
9
18
9
7
10
6
10
9
14
5
4
8
12
9
8
12
7
7
7
4
6
4
5
10
5
3
7
5
9
7
7
7
5
8
10
3
4
11
5
7
7
8
11
4
6
5
9
10
36
42
27
34
29
23
32
36
23
30
43
37
29
40
45
38
40
30
38
37
31
39
35
29
38
32
39
32
41
33
33
37
43
35
33
37
41
28
30
35
36
27
33
30
29
27
34
20
38
44
41
42
38
26
25
37
35
38
35
20
61
64
53
30
35
25
35
31
17
19
14
12
15
9
8
13
12
12
5
7
5
6
7
5
10
10
7
5
10
8
9
11
5
6
6
7
6
7
5
8
4
16
9
11
11
5
3
5
6
7
5
5
4
12
6
7
7
13
4
7
40
44
37
38
29
27
36
36
30
27
29
29
27
30
24
25
25
21
25
30
30
31
33
25
21
23
22
23
30
23
21
26
25
30
31
34
23
28
25
29
36
21
28
27
25
25
35
26
27
25
31
25
42
26
24
40
33
16
21
33
45
42
58
47
33
36
25
20
21
19
24
16
16
11
10
5
8
7
9
3
10
8
9
5
3
10
6
9
7
11
12
4
9
6
5
6
9
6
9
11
7
7
5
10
7
5
5
9
6
6
11
9
5
5
4
9
7
6
8
17
39
45
34
33
31
27
28
22
26
25
22
29
31
24
21
16
20
29
20
27
19
21
23
20
18
24
18
19
16
32
24
19
26
18
23
16
21
18
30
24
23
19
15
13
32
22
25
17
20
18
13
22
19
15
26
26
20
23
20
16
63
58
48
44
36
31
23
25
25
20
12
10
23
19
9
9
13
8
9
12
9
9
5
8
8
3
11
4
3
4
16
7
8
6
7
8
10
7
11
8
7
5
11
5
6
12
7
8
6
6
9
4
6
5
4
6
8
7
7
13
36
46
39
40
22
26
17
27
21
19
20
13
17
19
19
18
9
12
25
18
16
13
12
8
13
14
12
17
17
7
17
17
18
23
18
15
18
19
12
12
14
19
18
15
17
15
20
14
14
13
18
11
13
11
12
21
14
7
16
16
70
63
54
47
44
29
36
19
18
14
29
11
13
12
13
16
7
5
12
9
8
7
17
10
6
6
8
9
11
3
5
8
6
6
4
6
9
6
4
10
6
6
7
8
5
7
9
8
10
9
2
6
7
2
8
6
8
9
1
9
46
55
34
28
27
20
30
22
12
15
19
11
21
14
13
11
13
12
9
10
15
9
6
14
8
11
9
9
9
6
9
9
11
10
9
10
7
13
7
17
13
7
13
10
11
7
8
14
11
8
8
6
14
3
9
7
13
9
10
11
62
66
55
48
43
21
28
24
27
13
22
14
17
13
15
9
10
8
10
11
5
13
2
8
6
7
6
6
2
13
11
4
2
9
8
5
5
7
8
6
9
5
2
6
7
7
5
5
8
6
3
7
5
7
6
10
7
8
3
8
57
35
37
18
33
19
22
12
16
21
11
17
5
11
7
5
18
6
12
8
2
3
11
9
10
8
6
6
6
6
4
8
3
11
3
16
4
5
5
7
8
7
3
4
5
4
6
4
4
7
4
7
6
8
9
6
8
6
4
9
61
58
50
53
42
40
32
18
19
19
15
22
10
11
11
7
16
16
7
9
13
7
15
9
8
13
5
5
5
7
13
8
7
11
5
8
10
9
6
13
9
8
5
7
5
6
12
2
7
6
3
3
5
4
5
6
9
8
5
8
37
45
34
28
33
20
21
22
17
8
16
10
7
10
9
9
5
4
11
14
7
5
5
5
5
9
10
5
6
5
3
8
5
6
5
7
3
1
5
5
4
8
1
5
9
7
4
3
9
7
5
4
2
7
7
5
5
4
5
6
57
65
35
36
43
31
17
27
16
23
17
6
13
11
8
16
5
12
7
4
11
4
2
9
5
7
10
14
2
7
6
4
7
13
6
4
6
10
8
10
10
11
4
13
7
10
4
8
6
5
3
5
11
12
9
8
11
9
4
10
42
54
34
30
22
23
9
22
8
11
10
5
4
6
2
9
3
9
8
5
4
6
12
5
6
6
5
7
10
10
5
7
3
5
5
5
11
5
5
4
4
7
5
10
8
6
11
6
5
10
6
11
11
6
14
9
9
6
7
15
47
58
44
41
40
35
20
16
18
13
16
13
15
10
14
11
5
6
6
14
5
13
6
9
8
6
10
13
8
6
6
6
7
6
5
3
2
6
5
11
7
11
5
5
9
5
6
6
7
10
9
9
4
9
5
7
9
9
4
11
41
44
29
26
26
20
14
16
9
11
18
9
11
5
9
4
7
9
14
7
12
14
12
7
10
15
14
9
15
9
9
11
6
13
10
11
7
10
9
6
16
12
9
8
10
11
7
7
16
7
15
9
10
9
9
11
9
12
11
12
57
39
42
41
31
25
30
20
24
7
18
12
5
11
8
16
6
7
9
5
8
6
9
3
5
7
9
8
7
6
3
9
11
7
9
8
3
6
9
10
5
9
7
5
6
6
9
3
8
11
7
13
7
8
3
8
9
5
4
7
40
47
44
32
16
24
20
17
8
11
22
13
16
8
14
23
14
6
12
16
11
12
16
17
21
18
8
23
16
9
17
12
14
15
16
17
10
16
19
13
10
7
15
17
8
14
16
7
18
17
9
11
19
16
18
5
15
17
15
16
57
56
39
37
26
30
21
22
19
14
13
6
11
11
16
15
6
7
8
7
3
13
13
7
5
3
10
6
5
8
11
10
9
3
4
7
6
9
3
3
3
7
3
11
4
5
6
8
5
4
7
9
8
14
9
10
5
7
4
14
48
43
42
25
30
19
16
19
17
16
14
12
20
22
15
20
15
19
18
24
19
17
20
13
15
16
23
18
19
33
18
18
16
22
17
22
14
12
21
18
26
17
17
27
20
19
23
18
20
20
16
30
8
12
18
20
20
19
17
25
39
46
42
32
22
23
20
17
20
14
14
16
14
9
8
10
7
4
11
4
6
5
8
9
3
7
5
8
9
6
8
8
6
7
4
9
14
8
8
7
4
5
7
8
10
12
8
10
11
8
14
7
7
7
7
9
10
7
6
8
35
63
33
32
23
20
24
16
16
22
24
19
16
28
20
25
30
23
19
18
29
25
23
25
24
26
24
22
28
21
33
15
19
14
25
23
23
22
25
27
17
21
21
26
25
23
31
17
27
21
25
24
28
26
26
19
24
13
26
14
40
47
21
25
26
17
20
14
19
18
12
16
15
8
11
9
8
11
5
9
8
5
8
6
6
9
4
11
9
4
3
11
8
6
4
11
2
9
9
7
8
10
8
8
5
6
4
3
9
10
6
10
5
2
4
4
8
5
1
13
37
54
35
26
23
21
23
18
19
12
19
19
23
25
35
28
32
24
20
25
20
26
23
24
33
28
21
27
34
19
36
25
33
23
23
36
26
22
26
24
30
17
25
19
24
14
33
33
23
31
35
32
39
29
22
30
32
28
29
23
30
26
28
16
23
14
23
11
9
12
14
15
7
9
9
13
10
9
8
8
11
10
10
7
5
7
5
9
2
6
6
6
7
9
11
6
6
8
6
7
7
6
4
5
12
9
6
5
7
8
8
6
5
5
4
11
4
11
8
11
38
48
44
39
23
22
18
20
31
18
26
28
28
30
27
38
40
28
32
37
26
30
24
34
35
32
42
26
29
31
29
30
33
33
35
28
35
26
24
31
34
24
30
41
26
23
29
38
26
23
30
27
34
23
33
26
33
36
30
37
27
40
29
19
26
20
18
18
16
13
7
9
10
7
5
7
9
8
10
8
10
8
6
5
12
8
13
8
6
5
7
7
11
6
6
13
8
5
9
5
7
4
6
7
6
4
6
5
12
11
9
5
5
2
9
10
10
6
6
14
45
47
36
42
30
25
21
19
27
37
31
20
29
33
39
26
36
26
35
35
39
38
24
30
40
34
38
27
43
30
30
33
31
31
31
31
35
37
33
31
34
37
33
39
27
40
22
27
42
38
32
41
31
24
29
25
33
40
26
24
30
43
21
17
21
14
11
14
15
17
7
12
7
12
13
18
6
9
12
9
16
5
12
9
11
7
7
5
7
3
4
4
7
10
7
6
10
4
6
5
4
8
5
7
7
8
7
12
3
11
7
6
7
5
3
6
10
5
5
11
43
48
44
30
28
19
32
23
33
32
42
37
30
51
44
41
46
39
31
33
45
31
44
43
32
40
38
31
37
44
31
41
44
41
48
47
29
46
33
48
30
30
37
30
28
34
38
32
50
42
39
35
24
40
35
51
35
36
35
32
25
33
18
16
15
15
19
15
14
10
12
8
12
10
10
6
6
10
5
5
6
6
9
8
5
4
14
4
6
9
14
4
8
2
11
1
9
11
5
7
3
6
11
8
5
8
5
4
4
4
4
3
7
1
10
7
3
8
4
8
36
58
32
39
28
25
29
29
29
49
50
46
43
45
36
41
37
42
42
51
31
43
40
30
54
43
33
40
37
27
45
43
46
36
45
31
41
37
48
46
44
46
56
37
40
36
41
44
35
43
54
46
40
46
43
38
33
29
44
30
39
17
18
16
14
18
10
12
11
14
14
12
9
13
9
13
10
6
11
10
14
4
4
12
9
5
7
5
5
11
12
2
6
7
8
9
7
5
9
3
7
6
2
8
7
6
6
10
6
4
8
4
10
6
7
4
5
7
8
8
32
56
33
29
38
34
33
25
38
33
43
46
43
47
37
35
39
45
36
45
49
37
38
47
39
40
49
49
39
41
49
49
43
35
41
52
38
41
50
54
46
43
43
44
37
48
48
40
41
36
39
39
45
43
48
40
41
38
37
34
30
22
34
11
16
15
5
14
10
11
9
10
9
13
8
4
6
5
7
9
11
10
6
7
4
6
11
9
9
4
7
9
10
5
6
11
5
10
4
3
11
5
3
8
7
8
8
6
4
11
3
10
5
3
9
9
2
9
9
9
40
43
50
25
32
36
45
47
46
40
49
50
44
47
31
48
42
42
49
42
47
36
43
48
32
47
42
55
38
46
36
50
35
43
48
48
40
42
45
40
41
34
42
48
42
45
52
43
45
48
54
40
38
47
38
48
39
38
41
32
32
37
17
21
16
15
13
9
7
9
16
3
13
8
14
8
12
10
8
6
6
5
7
9
6
4
12
8
9
3
4
8
4
5
11
7
6
4
5
9
9
12
9
9
13
9
4
1
8
4
5
5
8
10
7
7
5
6
5
20
35
57
42
32
44
34
34
54
45
33
44
56
45
35
45
44
33
40
42
41
49
46
39
44
49
48
50
38
41
58
59
46
37
44
56
49
48
45
30
46
49
47
45
56
40
34
37
37
36
46
42
44
57
36
57
56
45
37
45
45
21
21
24
12
8
11
8
8
13
11
6
15
8
5
12
9
9
13
8
8
10
9
11
6
10
7
6
7
5
9
12
8
7
12
5
5
7
9
6
13
11
8
8
5
6
4
4
10
13
3
9
9
9
6
7
9
6
3
9
11
33
46
51
35
31
33
44
64
55
53
55
45
55
49
55
46
57
40
40
56
52
46
58
55
57
46
35
53
53
41
49
40
46
47
47
54
37
38
62
50
42
47
41
39
55
50
39
57
47
68
54
51
49
49
58
46
59
56
56
25
24
23
22
21
11
13
11
9
9
13
6
12
5
8
9
7
7
6
7
7
10
10
13
8
6
8
8
9
7
10
6
3
8
8
9
2
7
6
5
7
5
7
6
7
10
8
4
4
1
10
12
4
10
9
10
4
11
11
7
11
40
41
32
37
42
41
62
65
47
46
51
54
58
49
62
42
47
36
49
39
52
49
47
66
51
42
43
43
60
47
48
53
67
42
50
41
56
47
53
51
50
48
42
41
39
57
51
55
45
49
40
45
59
61
43
40
58
45
39
47
23
34
22
21
15
27
9
7
14
13
9
13
3
4
8
6
8
5
4
13
5
8
6
6
3
6
5
6
9
3
6
10
7
6
6
4
9
4
9
1
5
8
7
5
6
4
11
7
10
8
6
3
6
6
10
12
11
6
3
8
41
40
43
32
32
47
52
68
69
47
54
53
51
48
45
42
43
53
52
53
49
46
45
47
43
59
40
49
55
62
54
55
57
47
44
48
60
52
53
48
55
46
50
43
37
48
57
59
51
41
42
51
58
50
53
58
56
53
54
42
20
22
19
17
14
9
9
15
10
12
11
8
9
6
7
7
12
4
9
12
7
6
10
7
8
10
4
12
9
5
10
9
12
3
5
4
5
8
7
7
9
9
6
6
9
11
6
10
5
6
11
11
10
3
10
5
8
4
4
12
36
41
39
41
37
48
44
46
54
68
56
51
47
57
60
56
50
54
53
58
55
56
69
46
53
61
60
58
47
53
42
54
52
43
44
66
41
44
50
62
53
53
48
57
58
51
52
57
53
49
51
57
42
63
46
63
62
54
44
41
17
20
21
15
12
12
8
11
6
10
6
15
9
8
9
4
8
14
4
6
6
9
6
11
8
4
4
8
7
11
6
4
7
2
12
6
9
7
7
8
6
6
5
7
5
4
4
8
7
5
6
9
12
10
10
8
10
7
8
11
38
45
42
30
41
54
51
51
60
46
63
46
55
49
49
65
54
59
63
57
55
61
54
51
51
54
49
49
45
49
47
59
48
51
65
50
61
62
57
53
61
55
51
45
52
37
45
54
73
60
58
46
52
58
59
55
63
50
39
39
24
12
21
19
14
16
9
9
16
9
7
8
12
10
13
14
5
5
11
6
7
7
5
9
5
8
9
5
7
6
7
8
5
7
8
9
4
7
2
9
8
8
8
11
7
7
9
8
6
5
8
8
7
6
10
7
8
9
12
7
49
58
35
46
58
57
53
52
46
60
43
64
60
65
46
51
68
51
46
52
46
66
44
58
60
43
52
70
51
53
65
64
56
54
48
63
63
64
56
53
53
51
48
65
59
48
44
60
59
74
55
57
44
47
55
51
51
54
53
46
26
19
15
17
7
9
9
12
10
7
6
10
5
9
5
8
5
4
6
9
10
5
7
10
12
15
9
4
9
4
6
10
6
11
9
9
7
6
3
9
7
7
11
11
6
6
7
13
12
7
1
13
8
10
10
7
4
7
8
7
51
48
38
51
46
54
72
52
66
57
50
74
56
76
50
50
58
62
40
40
47
61
48
53
43
66
58
53
55
59
57
63
50
68
64
64
63
52
51
63
48
57
51
49
53
56
55
47
74
66
40
51
48
47
50
61
64
40
44
52
21
16
13
10
14
11
14
14
7
13
9
6
10
8
9
6
6
7
7
8
7
6
11
8
4
11
7
3
6
9
4
5
8
7
8
12
7
5
7
5
4
12
5
5
4
8
12
8
7
7
6
7
2
8
4
6
13
10
10
3
37
37
46
51
56
59
61
67
60
62
50
62
57
60
47
62
58
53
46
52
59
66
61
53
49
47
45
59
59
49
60
49
52
64
49
64
48
39
63
53
45
54
52
54
62
51
53
42
51
73
69
53
51
56
52
58
50
57
65
33
19
16
16
9
13
16
11
13
11
9
12
6
4
9
5
10
8
12
10
3
7
10
6
8
8
7
1
8
5
5
3
8
7
13
8
11
3
11
9
9
5
9
4
11
8
16
8
3
5
12
6
8
6
7
9
6
10
5
10
4
38
43
39
46
55
55
55
66
56
52
45
59
56
55
49
64
52
66
53
62
42
64
44
57
56
48
54
52
58
38
59
64
47
57
61
48
61
62
63
54
67
62
68
50
62
71
49
50
64
48
61
47
69
56
60
54
62
55
54
51
26
20
14
21
12
15
14
10
11
10
10
8
11
7
11
7
8
5
9
11
8
6
10
11
6
10
7
9
8
7
3
8
7
4
8
5
10
9
5
6
14
7
5
7
10
7
9
3
4
11
13
3
4
4
5
8
9
9
13
9
36
51
49
40
59
66
59
52
65
53
50
55
53
53
72
47
65
44
56
58
54
61
65
45
62
43
58
64
65
60
65
64
48
50
58
56
62
44
61
58
59
47
55
65
65
64
57
52
52
67
59
57
68
47
59
58
55
62
51
41
20
19
14
11
13
19
10
8
9
11
9
8
3
12
9
7
6
12
7
10
16
6
10
5
4
5
2
5
9
8
10
13
4
10
5
9
6
6
0
5
9
9
7
12
4
8
6
6
5
12
7
4
3
7
7
9
6
6
10
16
37
43
45
31
54
60
62
50
44
56
66
63
65
63
75
57
54
62
52
55
52
56
50
68
68
78
58
46
52
49
63
40
51
59
58
53
60
44
49
63
67
59
62
49
66
64
54
50
54
72
62
58
49
50
66
63
45
63
64
44
25
16
12
18
14
9
13
12
10
11
6
10
16
11
10
12
11
10
7
7
9
7
3
7
4
7
4
3
5
9
4
7
6
9
6
7
3
9
9
1
10
5
12
4
6
8
9
10
5
5
10
9
7
5
6
10
2
4
7
9
56
39
39
48
70
49
77
54
60
58
57
57
66
64
53
60
61
44
53
49
70
63
55
55
56
48
63
55
55
54
58
76
60
68
64
53
79
58
54
61
80
68
48
58
51
61
54
60
54
68
51
70
62
55
71
58
51
42
64
59
22
24
16
14
18
14
9
8
6
13
6
6
10
7
7
10
13
12
11
11
6
6
9
7
4
7
9
11
5
8
7
4
5
14
8
9
7
8
10
2
5
3
5
7
6
1
6
7
9
8
3
10
11
12
9
7
7
9
5
13
48
60
46
54
45
64
48
62
64
58
57
59
58
69
59
63
58
50
63
71
71
56
65
57
61
60
63
55
61
57
64
52
57
55
64
58
62
64
50
57
59
53
67
48
55
53
62
57
59
62
84
62
54
69
58
63
53
66
58
37
22
18
13
14
12
10
13
13
13
7
9
7
6
12
7
13
6
5
7
11
3
7
8
7
10
5
4
7
6
9
8
7
6
14
8
16
4
4
13
11
4
6
4
4
12
1
8
4
8
7
5
6
5
7
7
3
10
7
9
11
42
37
58
58
65
57
74
64
47
58
54
66
76
54
60
66
59
57
57
57
61
56
62
56
62
57
59
64
61
61
54
51
60
43
61
66
51
66
65
54
60
70
45
44
56
54
63
70
80
56
70
67
54
58
59
59
64
60
49
43
29
18
25
8
9
13
12
12
14
8
11
8
9
18
6
7
7
10
8
6
12
9
9
9
6
5
6
10
7
12
7
2
8
9
3
5
11
6
8
5
10
10
8
6
10
6
4
8
5
3
9
7
7
6
4
7
13
8
6
11
39
64
44
51
66
71
66
54
64
55
74
68
56
57
45
61
56
58
59
65
60
74
59
68
50
59
61
64
78
64
63
63
61
60
70
65
65
47
58
65
60
66
73
62
47
64
62
61
49
57
58
57
69
66
58
58
73
71
60
46
25
15
15
11
13
16
11
16
14
10
13
9
5
13
6
5
10
7
4
6
4
6
6
6
7
11
6
9
5
7
10
9
4
1
5
6
7
8
4
9
8
8
9
9
4
6
8
8
6
8
6
6
9
11
6
11
16
3
4
8
46
47
51
60
67
63
51
63
58
49
73
56
59
58
63
66
70
55
45
59
54
63
62
73
54
56
58
52
46
77
69
68
69
59
58
58
69
53
52
58
66
57
48
55
48
50
59
61
67
55
62
63
56
63
66
65
53
62
62
38
23
20
17
9
16
22
7
8
8
9
7
6
12
6
13
9
6
6
7
10
10
6
8
4
3
9
6
3
8
7
8
7
9
10
11
3
10
11
5
11
9
7
5
4
8
4
9
7
11
10
9
12
7
7
12
3
8
3
5
5
9
5
7
3
4
4
3
4
3
4
4
3
3
2
3
0
3
3
4
1
4
5
7
4
5
3
3
6
4
7
3
4
5
8
4
5
6
3
3
3
2
3
6
2
5
4
3
5
4
4
7
7
4
2
3
2
5
3
3
6
5
3
3
1
8
4
3
4
4
5
4
8
7
1
8
3
3
6
3
5
4
2
8
6
5
3
5
3
4
2
6
4
6
7
5
3
6
3
1
2
4
4
8
2
2
2
4
5
5
1
5
3
5
6
3
6
2
3
10
4
4
6
4
5
3
3
4
3
3
5
6
3
5
4
7
6
1
4
4
4
1
6
1
6
4
7
1
4
2
5
3
5
7
2
3
6
2
5
5
4
2
5
4
3
2
5
8
4
0
4
5
3
5
2
4
6
3
4
4
2
4
4
4
3
3
2
5
3
5
