#Saved Data from the class pulsed_measurement_logic on 18.11.2022 at 16h43m15s.
#
#Parameters:
#===========
#
#bin width (s): 5.0000000000000001e-09
#record length (s): 8.6824999999999996e-05
#gated counting: False
#Number of laser pulses: 156
#alternating: False
#Controlled variable: [2e-08, 4e-08, 6.000000000000001e-08, 8e-08, 1e-07, 1.2e-07, 1.4e-07, 1.6e-07, 1.8e-07, 2e-07, 2.1999999999999998e-07, 2.4000000000000003e-07, 2.6000000000000005e-07, 2.8e-07, 3.0000000000000004e-07, 3.2e-07, 3.4000000000000003e-07, 3.6000000000000005e-07, 3.8e-07, 4.0000000000000003e-07, 4.2e-07, 4.4e-07, 4.6000000000000004e-07, 4.8e-07, 5.000000000000001e-07, 5.2e-07, 5.4e-07, 5.6e-07, 5.800000000000001e-07, 6.000000000000001e-07, 6.2e-07, 6.4e-07, 6.6e-07, 6.800000000000001e-07, 7.000000000000001e-07, 7.2e-07, 7.4e-07, 7.6e-07, 7.8e-07]
#
#Data:
#=====
#Signal(counts)
4
2
4
2
3
5
1
5
3
4
0
4
3
2
2
4
20
82
96
86
84
61
57
61
61
39
34
54
56
47
30
27
42
30
33
32
32
32
24
24
16
29
34
36
29
21
24
19
23
21
22
17
26
25
21
25
26
20
16
15
25
13
13
15
21
8
18
15
20
18
15
20
21
13
15
19
13
13
9
14
11
16
20
15
17
17
10
15
15
16
12
8
19
20
7
17
19
16
17
15
14
13
21
14
6
21
16
13
13
16
17
16
17
13
18
20
13
19
11
12
15
18
9
16
15
10
12
22
19
22
15
17
17
9
19
17
40
188
143
161
129
106
115
103
104
95
85
99
74
79
66
73
74
64
48
46
50
61
45
47
52
35
42
49
36
30
36
25
30
29
29
33
28
35
33
24
22
28
23
35
18
33
29
27
22
26
27
28
21
19
24
26
21
18
20
13
16
20
19
17
32
26
24
26
25
16
17
16
27
18
25
23
28
22
19
20
28
20
18
17
24
19
14
20
18
22
19
23
28
17
15
16
19
23
21
7
20
19
20
32
19
22
21
20
21
25
14
18
20
16
19
14
19
11
26
15
18
9
5
6
14
17
24
27
17
29
23
20
19
17
26
23
22
22
26
12
24
21
26
25
18
20
24
22
18
24
20
22
31
25
15
16
22
12
18
21
11
10
20
16
19
20
21
23
16
15
15
17
26
20
19
11
20
9
10
18
24
20
22
13
22
15
16
24
21
18
17
22
13
17
10
20
23
14
17
12
23
16
22
14
23
19
16
19
17
18
16
17
19
29
19
26
19
16
16
24
21
11
27
27
20
23
13
11
19
20
29
22
21
23
22
28
15
12
23
21
18
13
11
18
38
187
131
127
140
116
120
104
105
83
93
76
70
71
69
62
52
68
56
51
50
45
52
38
47
40
38
41
21
26
35
25
27
18
19
23
15
32
26
26
32
19
13
16
20
16
14
19
23
30
12
21
16
17
23
16
21
20
21
17
20
24
15
17
13
9
21
19
19
14
19
15
18
24
17
15
31
15
16
17
9
18
16
13
17
26
11
17
15
15
20
22
10
14
14
21
15
16
12
8
11
19
14
11
19
15
12
11
16
22
21
15
23
18
10
18
14
13
13
12
39
182
153
128
134
118
130
109
103
108
96
87
97
75
79
66
67
56
64
41
46
47
49
52
50
45
48
43
31
41
36
30
43
27
20
30
30
31
31
24
32
17
32
28
29
22
30
21
15
27
20
32
28
29
28
23
28
21
36
15
19
28
19
28
23
23
24
13
19
17
22
17
19
28
28
20
19
25
27
20
26
16
21
17
24
21
28
25
23
18
17
24
19
17
22
20
23
23
22
18
27
20
26
16
16
15
21
23
22
22
19
22
15
17
23
28
21
21
14
18
16
7
4
3
6
11
3
7
9
34
28
29
25
25
31
19
23
17
13
19
22
28
20
19
19
20
19
20
16
23
24
36
22
19
14
22
21
24
21
24
16
27
18
22
19
16
20
16
24
21
19
24
11
19
20
19
20
15
20
13
19
18
21
26
18
23
24
20
11
26
22
12
24
19
18
15
30
14
18
22
17
15
26
16
14
19
21
13
19
15
21
10
18
23
18
20
14
20
22
12
16
29
19
20
13
19
21
29
16
17
19
19
26
16
22
14
23
16
19
22
13
14
22
16
18
13
22
18
37
184
140
140
109
112
103
101
85
106
84
79
76
73
65
71
56
50
44
50
52
47
45
35
39
36
31
37
34
29
23
35
28
20
33
28
25
23
17
14
32
24
19
20
14
21
23
15
23
18
17
12
22
18
26
17
14
12
24
17
14
14
18
11
21
19
18
21
13
14
16
18
14
20
9
20
15
16
15
23
16
15
13
10
16
16
17
18
18
16
29
14
20
11
24
17
16
13
13
17
19
16
14
13
14
20
10
14
19
14
14
14
17
15
18
21
14
12
15
10
40
173
174
150
142
113
123
111
96
99
81
83
71
83
81
60
53
58
53
43
48
37
49
41
47
40
42
40
45
34
40
23
33
38
37
28
35
26
32
29
24
19
21
27
33
30
24
27
25
27
25
7
24
27
18
24
26
26
20
24
23
18
25
20
23
23
23
26
19
22
29
29
16
23
26
22
19
21
20
16
24
17
21
21
22
19
18
14
18
21
14
20
24
15
23
22
18
15
17
16
19
19
19
23
20
20
19
16
20
22
21
16
29
20
18
24
20
18
24
23
13
11
5
3
2
4
8
6
3
4
3
4
11
19
26
25
23
25
29
30
18
19
29
21
12
15
24
27
24
24
21
16
21
12
23
33
27
24
22
18
22
26
19
21
15
13
24
22
22
18
23
15
16
19
19
23
19
14
18
11
19
23
18
11
15
26
18
23
17
23
14
21
18
21
14
20
19
17
16
17
15
14
16
16
16
28
14
9
17
19
24
17
22
21
23
24
22
19
17
22
17
24
14
21
15
22
23
14
15
16
21
14
16
20
18
18
11
19
25
21
21
21
13
17
15
27
23
19
14
25
18
17
36
158
147
154
155
122
104
118
99
94
102
84
65
78
60
66
60
63
54
39
46
48
35
47
44
38
31
37
38
28
32
34
29
19
32
27
20
20
19
23
23
18
21
17
19
19
20
20
22
14
20
14
18
16
23
15
17
18
16
25
12
19
18
18
12
13
12
14
15
22
14
10
17
18
23
13
11
19
15
21
20
14
17
18
10
10
18
18
16
18
18
14
14
11
14
13
18
17
18
12
12
23
13
13
16
18
14
13
13
23
11
15
16
14
20
15
13
16
14
16
41
180
140
155
141
124
129
127
109
96
96
84
68
77
73
69
61
54
64
73
49
65
46
52
51
46
35
48
41
38
28
34
24
31
37
35
32
37
19
28
22
26
30
23
27
34
23
36
30
18
22
24
14
23
21
18
36
15
23
29
21
22
26
17
11
15
15
15
20
15
20
18
18
21
17
36
20
15
31
24
10
17
22
21
17
24
20
20
21
23
26
21
12
20
22
18
19
25
18
15
29
23
21
17
26
22
25
24
30
15
15
24
19
23
17
21
12
20
17
15
14
5
7
4
5
5
4
5
4
6
6
5
2
1
6
10
7
31
28
31
27
28
18
28
22
35
23
22
20
27
17
22
22
29
20
16
15
17
20
32
20
25
26
20
25
23
16
25
19
26
20
25
21
25
17
21
24
12
24
16
17
15
23
23
24
15
22
22
19
30
19
19
22
23
24
22
23
18
19
22
21
22
23
18
11
24
20
16
13
25
21
14
28
22
19
14
19
23
21
14
22
16
25
22
17
16
20
24
23
18
15
20
19
15
25
19
19
20
16
17
21
18
23
18
25
29
23
12
18
21
23
14
19
22
16
19
34
154
154
174
125
120
115
97
95
95
89
84
79
64
64
73
60
44
49
53
56
32
45
37
29
34
32
28
26
24
24
27
35
22
21
21
22
28
19
27
16
11
11
23
21
21
18
19
22
19
20
25
16
12
18
16
15
17
21
20
14
27
14
17
15
16
17
21
11
15
24
17
17
19
12
11
18
8
11
19
12
11
23
10
22
20
17
13
15
11
15
10
17
13
7
12
15
16
14
20
16
18
22
13
13
17
19
12
11
14
12
7
18
15
13
18
13
11
18
14
32
164
138
142
133
130
113
120
115
127
96
71
82
62
50
86
59
76
67
58
59
60
47
37
43
36
40
48
31
31
46
28
35
37
31
38
23
27
29
26
21
24
26
29
25
23
23
22
25
16
23
26
23
24
22
16
16
25
25
18
19
26
23
23
23
21
24
19
14
16
15
18
20
20
28
24
20
22
22
22
23
22
22
24
20
29
14
22
17
26
26
21
32
16
14
30
17
21
19
20
13
13
19
20
19
21
16
23
20
19
17
27
23
12
20
17
17
27
12
17
24
7
4
7
6
12
5
7
6
4
3
8
3
11
6
1
6
9
5
3
10
37
31
28
33
22
26
17
28
32
26
20
28
14
20
20
24
27
26
25
32
22
18
18
24
18
24
25
21
19
21
23
18
20
20
20
15
24
20
16
29
21
12
17
19
21
25
21
27
17
14
18
25
17
19
12
21
20
14
17
21
24
22
8
18
21
22
14
9
22
26
18
18
14
24
22
19
23
17
20
21
21
28
16
20
25
23
18
26
15
17
20
22
19
14
27
21
16
14
21
24
21
18
17
18
9
23
12
19
24
15
22
23
17
18
17
18
21
19
25
44
170
181
127
129
118
103
121
84
95
88
90
76
74
48
57
47
59
43
49
44
52
38
36
38
44
39
26
39
29
23
28
27
29
28
23
33
25
22
24
36
16
19
26
12
17
19
23
29
27
21
26
13
20
21
15
23
18
8
15
19
16
18
22
15
12
18
7
17
14
9
16
22
20
13
17
17
22
12
23
24
12
15
13
12
20
10
17
13
14
16
17
16
14
11
21
20
11
13
17
22
15
15
14
16
15
16
11
12
13
18
13
16
17
7
11
10
12
10
13
43
197
145
133
132
131
127
109
112
119
94
76
66
72
64
70
61
66
72
54
57
45
48
58
45
39
39
44
41
36
29
28
27
29
18
22
32
27
27
31
24
28
38
38
40
25
19
22
26
18
30
24
21
26
17
26
20
20
18
19
26
17
22
15
17
19
26
19
14
19
26
24
15
31
18
23
25
21
25
24
27
14
24
26
15
18
23
14
19
17
26
19
26
14
19
18
24
28
24
20
20
31
20
22
13
29
22
18
15
25
17
17
24
24
21
20
22
12
22
15
13
6
7
6
4
3
3
5
10
8
7
6
1
6
2
6
1
7
1
8
9
4
3
6
16
53
31
25
33
19
31
33
26
29
25
31
26
24
25
26
29
17
26
16
19
24
20
21
22
18
24
22
17
23
11
20
14
16
13
20
21
23
25
19
22
21
16
25
12
17
18
17
30
27
10
15
18
20
23
19
23
23
23
23
17
25
20
19
19
18
18
19
24
18
22
23
25
18
18
19
18
24
20
16
17
21
21
23
25
14
24
15
25
13
23
25
22
13
14
19
22
20
22
23
21
26
13
11
22
26
14
19
21
23
28
18
21
23
24
16
17
24
13
32
41
165
164
151
140
118
96
111
95
91
88
88
82
76
62
62
79
52
50
35
49
34
35
43
40
34
39
33
35
33
29
31
23
24
23
27
26
23
27
29
16
22
27
20
10
18
19
13
18
15
21
19
21
16
21
23
14
21
17
7
16
10
15
17
23
28
17
13
16
20
12
15
14
9
15
15
14
20
21
17
13
12
13
11
19
27
10
10
19
13
14
13
17
16
20
15
18
15
20
15
17
17
11
18
18
12
13
13
19
12
13
17
17
15
11
14
14
15
13
11
42
154
183
143
135
119
122
104
108
90
71
88
87
79
64
65
83
46
65
61
51
60
53
43
52
44
38
56
40
29
30
34
41
36
30
30
19
24
27
30
27
20
22
35
25
23
28
37
25
29
15
22
26
27
33
21
19
29
19
19
27
20
27
19
18
18
25
13
21
26
15
17
26
19
27
20
27
27
27
20
18
21
21
17
18
17
19
14
18
20
27
21
23
18
16
17
27
22
19
14
23
14
17
21
23
19
15
23
18
23
27
20
19
20
14
20
20
15
21
13
11
6
3
7
4
6
6
3
4
6
5
4
4
5
6
7
2
9
6
5
7
4
5
7
5
9
6
8
3
43
36
30
24
42
45
32
27
29
36
35
29
17
40
20
23
18
27
30
24
25
23
23
23
21
29
18
21
29
31
26
28
21
25
15
15
34
22
23
17
20
20
19
19
23
28
24
15
27
18
18
23
19
22
19
16
25
17
23
11
24
27
23
26
16
12
26
19
23
25
27
21
10
18
27
14
15
9
15
21
16
15
12
14
15
21
28
18
17
10
19
15
19
23
22
17
22
32
24
18
22
13
21
20
24
15
16
22
21
15
14
19
21
22
15
23
20
29
20
38
174
157
150
158
111
121
129
87
95
76
70
83
61
64
52
54
56
43
39
46
26
49
52
46
29
31
35
37
40
27
30
29
22
27
18
16
16
21
26
31
21
15
16
16
24
29
17
19
16
18
24
21
15
20
17
23
16
12
16
16
21
14
12
15
27
18
12
21
22
14
16
15
19
12
13
11
16
22
15
19
15
19
14
13
18
13
11
15
11
19
14
21
14
16
10
15
13
15
13
13
19
19
11
18
10
18
13
13
13
22
11
16
17
10
14
15
16
20
17
34
181
168
146
116
119
107
132
102
105
102
85
79
78
61
73
58
59
70
60
47
56
48
55
51
41
40
36
45
32
40
41
33
37
20
33
29
29
29
30
19
33
23
23
19
18
23
24
27
27
24
16
19
25
26
13
17
24
20
19
24
22
18
17
19
17
21
21
25
23
17
19
20
20
25
26
19
24
24
21
17
17
23
24
19
28
19
27
32
20
21
15
21
13
21
20
25
21
21
19
24
20
15
19
20
16
17
16
13
22
18
15
15
18
28
16
18
22
17
18
11
4
8
5
6
6
4
5
6
7
7
11
8
8
4
5
8
6
10
4
10
10
7
3
6
4
6
5
8
7
7
8
13
36
38
30
43
30
33
36
25
36
31
34
17
24
22
34
29
22
30
25
16
29
28
19
21
18
21
16
21
20
23
21
14
14
22
27
21
21
27
24
16
20
24
16
19
17
11
24
9
23
17
17
28
18
15
16
16
15
17
17
15
24
26
13
19
21
14
18
20
19
31
21
15
12
24
15
22
23
26
22
19
26
16
16
21
17
17
17
19
15
20
28
16
24
13
22
16
18
19
18
13
19
16
23
13
12
17
28
16
22
19
18
14
13
20
23
16
16
16
13
49
185
139
145
104
119
95
116
99
79
90
74
70
67
53
63
54
67
47
60
39
58
43
38
44
41
22
37
42
26
30
19
25
31
20
23
29
24
27
23
24
23
15
28
24
16
10
14
23
17
18
25
20
16
15
21
20
18
9
17
24
15
22
25
22
20
18
22
18
15
14
20
17
14
16
21
22
14
24
20
12
21
21
12
9
11
10
14
14
15
16
18
11
13
10
10
10
10
14
21
7
9
19
19
17
16
26
15
13
13
19
17
14
11
20
23
8
24
15
19
38
161
151
150
141
141
105
98
105
106
92
77
85
80
69
67
57
72
69
58
62
48
53
46
31
37
28
46
43
35
33
36
26
41
42
29
26
33
26
32
28
25
23
29
23
28
28
23
28
28
23
30
30
28
22
21
35
23
19
20
27
10
31
24
20
34
21
26
23
14
21
33
14
18
30
18
16
24
17
18
19
14
21
16
17
16
16
20
22
15
17
25
24
24
15
22
15
24
22
21
21
15
23
21
20
14
17
19
25
21
17
19
23
25
22
27
19
17
27
13
23
12
3
5
5
3
8
4
13
6
9
9
5
3
5
6
1
4
7
2
1
4
9
3
8
8
5
4
3
8
4
8
8
7
7
5
13
51
39
32
41
42
35
21
33
26
38
37
27
37
30
19
28
31
22
20
26
28
25
23
30
18
19
15
31
22
23
20
22
25
16
23
22
23
16
23
25
16
23
20
11
12
24
19
21
12
19
11
16
19
21
18
21
29
24
15
20
19
18
16
14
19
22
18
21
14
19
25
15
22
16
12
27
13
16
28
19
28
22
22
20
24
25
20
27
25
18
11
17
19
19
17
18
30
26
19
21
13
19
18
24
15
27
25
22
22
18
21
21
15
16
25
21
15
23
16
69
184
153
134
121
130
125
103
105
93
86
83
72
61
50
69
65
60
43
48
49
34
36
36
31
39
36
39
29
29
19
33
22
27
22
37
27
32
19
28
25
17
23
20
18
23
19
17
24
16
19
19
21
17
22
17
16
19
15
15
20
15
11
15
19
17
16
21
22
20
17
19
6
11
13
16
13
11
17
11
20
18
20
16
17
23
10
13
14
13
16
13
15
16
15
10
14
12
9
18
15
18
16
15
17
17
16
16
16
24
17
17
13
12
10
18
18
13
12
11
31
176
138
136
140
141
128
121
113
87
98
81
90
76
69
67
63
47
52
51
48
51
44
43
39
42
41
44
38
30
26
33
29
32
32
31
31
22
36
38
28
23
19
29
30
29
28
16
22
25
27
21
15
21
23
32
25
24
21
22
21
21
20
12
22
22
19
24
22
12
18
22
23
15
23
22
16
16
23
23
20
15
21
19
14
18
16
20
23
15
23
20
17
17
20
9
19
23
24
13
15
16
20
18
18
20
9
16
24
15
13
16
19
19
21
12
17
17
15
12
15
4
2
7
6
3
11
4
5
9
7
6
8
3
5
2
8
9
6
13
3
5
6
4
9
5
7
8
6
5
5
8
3
3
4
6
5
8
8
5
17
50
46
39
40
38
27
34
29
38
45
34
24
27
31
26
23
19
36
24
20
24
20
22
30
14
25
33
28
27
15
25
23
33
22
13
18
25
23
17
21
16
19
17
23
12
25
19
17
21
17
21
18
12
16
19
23
19
22
17
19
11
20
27
19
20
19
22
20
13
18
16
22
16
19
12
22
17
15
23
20
27
14
19
18
21
23
17
22
18
23
13
28
22
24
16
28
18
26
26
23
15
17
17
22
20
18
15
14
20
20
11
21
16
15
24
14
21
22
19
47
169
152
110
117
123
91
112
86
91
98
76
71
78
70
49
62
52
69
45
47
40
42
36
43
40
37
40
42
34
27
21
25
26
34
18
22
13
19
17
24
22
25
26
25
27
28
20
21
17
12
20
23
15
17
23
23
12
17
18
13
8
14
15
18
20
15
21
17
13
14
17
11
11
12
14
10
18
10
14
18
16
13
11
10
16
5
14
14
13
18
11
13
16
12
15
17
20
19
21
18
13
20
13
20
11
16
17
18
17
20
14
13
18
3
17
10
8
18
13
46
154
142
154
135
107
101
109
92
83
96
84
81
87
75
78
73
76
63
53
57
54
35
37
58
50
42
32
44
30
30
32
36
23
27
31
36
33
31
34
30
23
25
23
30
20
34
22
18
23
19
19
20
21
24
30
24
27
24
19
24
17
26
17
24
13
20
13
22
29
20
23
25
22
22
27
23
15
20
23
34
16
25
19
22
23
12
26
23
22
19
13
7
18
14
22
22
21
16
18
18
20
16
11
20
24
26
19
24
23
18
17
17
11
24
30
27
13
23
15
15
6
6
6
10
8
8
5
13
6
8
4
7
7
10
9
5
5
10
7
7
8
2
5
5
3
2
8
1
6
5
8
3
9
6
7
7
5
10
5
4
8
4
7
11
46
33
49
41
45
40
20
35
30
35
47
24
26
28
22
33
24
27
32
26
22
28
24
30
20
19
18
25
18
18
25
24
19
22
16
28
25
19
28
13
23
21
21
18
17
18
11
17
17
18
28
13
18
19
17
17
20
19
22
16
13
22
20
18
24
24
15
23
15
16
20
14
17
16
7
16
23
16
22
29
13
19
21
20
22
11
25
19
19
30
17
22
20
24
20
18
23
17
25
22
24
17
27
22
25
17
21
12
16
17
22
19
11
26
20
17
19
20
33
48
175
151
165
108
116
120
108
105
101
94
83
68
75
54
52
55
56
53
52
48
55
39
41
44
35
44
43
22
22
30
36
21
25
23
25
13
27
24
18
20
23
21
23
27
19
17
17
25
17
22
14
16
19
17
13
18
16
21
21
20
19
22
12
17
20
12
10
17
19
8
19
15
16
21
15
16
19
15
19
22
20
9
23
13
9
14
11
14
14
20
15
6
18
18
14
15
13
14
11
16
19
13
13
17
9
16
14
9
15
14
16
8
17
12
15
13
20
16
20
34
184
168
148
139
128
128
109
101
87
94
96
84
69
76
72
67
75
71
50
45
51
45
40
53
42
43
40
46
36
32
31
44
30
31
28
34
29
30
24
39
30
23
24
25
24
26
24
20
20
25
19
27
19
27
17
23
15
21
27
21
23
23
28
20
21
14
21
20
14
30
15
13
20
19
19
30
22
25
23
17
22
27
24
20
18
19
16
25
12
28
20
19
17
14
27
20
24
15
20
18
17
18
7
18
19
21
18
20
18
20
23
27
18
17
20
20
20
17
19
16
7
5
8
2
3
7
5
4
4
3
7
7
7
6
5
9
5
9
6
8
2
2
6
6
4
5
5
9
4
4
7
3
1
5
6
7
4
5
3
9
4
5
8
5
4
2
7
18
52
49
50
53
34
37
28
27
36
39
32
30
36
23
35
24
22
19
22
30
27
19
23
25
22
23
22
22
28
21
23
23
14
21
24
18
20
25
17
17
23
23
17
20
17
17
18
19
21
16
21
22
17
11
17
18
14
20
22
24
17
16
18
21
19
14
14
22
20
20
24
9
19
21
15
19
11
16
27
25
21
24
13
19
17
20
19
22
15
21
23
20
23
22
21
21
19
23
23
22
14
25
24
17
12
18
25
18
18
26
24
11
17
23
26
29
24
21
19
36
184
164
140
119
131
106
112
97
107
99
69
68
62
50
60
55
48
45
46
57
39
34
46
41
45
32
29
27
26
36
22
31
30
23
24
23
24
22
28
23
24
20
22
24
22
19
18
18
23
17
18
24
21
13
21
20
17
22
23
25
14
16
18
14
14
16
9
16
13
13
21
18
10
20
13
20
24
13
17
19
26
18
18
14
8
18
13
14
18
14
14
13
20
10
16
10
20
14
16
14
13
12
22
15
21
13
16
9
15
4
13
9
13
9
19
16
18
13
12
37
179
131
151
155
126
129
114
104
116
99
91
87
84
61
76
70
48
59
44
57
45
57
58
36
34
40
36
34
38
42
35
25
33
29
29
28
23
34
21
23
30
27
28
20
24
24
30
31
12
26
27
26
23
23
25
26
26
24
23
19
16
22
24
17
22
22
23
23
15
16
29
22
19
26
15
26
14
14
22
24
21
18
24
17
18
24
13
16
13
22
21
29
23
24
19
24
18
16
20
16
14
21
18
28
24
18
29
23
22
24
22
17
27
24
22
14
14
19
15
18
8
6
5
6
8
8
4
6
5
7
2
8
5
4
8
8
5
6
2
11
9
9
6
2
8
12
4
4
8
5
7
6
6
6
6
1
5
1
8
8
7
6
6
6
7
2
8
4
7
7
11
22
47
43
37
44
44
51
45
45
27
25
32
30
38
27
30
26
27
36
27
32
27
26
23
34
22
27
29
18
20
28
23
28
14
20
27
14
16
18
22
17
8
16
25
26
20
25
15
20
31
8
24
13
18
18
19
18
23
20
17
16
18
19
11
22
19
23
30
20
21
23
15
25
23
24
14
16
12
26
11
20
23
19
16
24
11
24
20
18
20
17
24
18
19
20
22
23
9
21
12
25
17
15
22
21
24
15
18
17
19
22
16
23
19
15
11
18
16
23
21
49
172
141
125
134
116
113
117
90
114
77
68
76
69
61
61
62
61
60
41
54
42
36
29
41
32
31
26
35
32
34
29
31
21
39
17
27
19
22
29
20
20
21
19
18
12
19
26
23
18
12
14
19
17
17
13
12
17
15
19
12
18
17
20
25
22
15
7
17
15
17
14
12
10
14
13
25
13
21
17
20
13
15
10
15
16
19
11
18
13
22
17
15
17
21
27
12
19
17
17
15
12
16
15
21
13
17
16
16
17
12
6
16
28
15
14
20
15
13
8
46
201
156
126
148
113
100
113
120
80
94
88
76
82
72
78
75
55
57
56
43
43
47
52
43
44
43
43
45
27
29
39
43
35
37
21
27
25
40
23
18
32
19
28
23
34
18
20
23
24
25
20
26
20
21
20
24
19
26
22
23
19
21
21
26
12
24
15
17
24
22
22
21
22
30
19
17
15
25
13
22
24
27
20
23
17
18
19
22
21
25
25
18
16
22
24
17
28
12
15
21
18
20
25
14
17
20
15
19
23
21
20
22
19
20
18
16
20
17
20
13
6
4
3
7
8
5
5
5
8
10
5
5
4
7
5
5
5
4
3
6
1
3
5
6
6
4
6
2
6
10
4
8
3
9
6
9
9
3
8
9
9
4
5
8
6
4
2
5
5
8
4
5
4
9
9
11
62
53
51
22
51
32
34
39
42
28
34
31
29
40
38
28
26
25
32
17
24
26
23
36
21
22
25
23
20
20
20
20
23
21
20
20
20
26
14
18
24
18
23
23
13
11
24
19
26
30
20
18
18
22
22
15
21
20
29
25
16
19
17
22
12
18
17
18
23
24
12
17
18
20
20
15
24
17
14
17
21
19
21
21
16
14
18
18
26
19
21
24
16
27
21
13
23
18
14
11
22
16
19
24
19
22
28
17
23
19
23
18
20
20
19
20
34
27
17
40
193
162
145
121
131
105
96
112
93
72
82
77
79
57
49
57
59
54
50
45
40
35
37
45
23
31
29
26
35
25
28
41
26
27
26
29
19
26
22
23
18
17
21
26
25
9
17
20
19
23
17
20
15
17
17
12
11
19
18
21
18
16
11
15
20
12
13
16
16
26
24
12
17
11
15
9
10
19
18
15
20
18
7
16
8
14
20
12
14
14
18
10
19
20
18
23
10
15
13
24
8
11
7
19
11
14
10
9
15
17
22
26
12
10
10
12
15
18
17
37
180
162
160
121
120
101
107
100
87
76
76
70
70
79
71
59
62
73
49
56
52
47
52
45
47
44
31
31
45
39
26
37
29
31
31
29
32
27
24
34
36
37
35
21
29
27
26
17
20
14
17
22
26
27
27
19
16
20
20
17
16
43
33
15
22
23
20
22
10
30
23
23
20
20
18
16
18
17
15
21
17
24
18
22
13
18
20
14
18
10
15
23
17
18
22
19
22
24
29
17
18
16
18
22
22
30
13
18
27
25
19
20
24
16
29
20
22
15
22
14
8
7
3
7
6
14
3
2
11
7
3
7
5
10
2
3
6
7
10
10
5
3
3
3
5
7
4
4
7
4
1
4
5
7
6
5
6
5
5
5
8
5
5
7
6
5
6
6
8
7
9
9
3
8
5
3
6
7
2
15
45
55
48
48
46
55
36
31
33
38
28
24
31
24
26
27
21
23
37
31
27
20
29
22
30
25
23
23
22
24
18
24
15
22
17
16
19
19
18
22
14
19
24
19
16
19
19
27
18
20
17
22
16
28
21
17
18
21
24
29
16
18
16
23
14
19
16
17
21
14
28
16
26
19
21
25
20
14
17
21
19
25
17
15
15
16
18
24
23
20
21
13
15
19
16
18
18
14
23
15
14
23
19
22
21
21
17
20
15
28
21
17
19
18
13
18
15
17
24
48
175
151
140
122
139
123
101
109
87
86
76
76
65
73
59
57
77
54
51
47
42
30
42
25
33
28
34
33
30
23
36
18
23
26
34
18
20
18
13
27
20
17
28
22
16
16
19
15
19
21
18
13
25
19
20
13
15
16
17
8
25
12
20
17
17
16
18
16
12
15
19
14
10
19
9
10
19
15
18
12
11
19
21
13
18
14
18
15
19
13
20
10
15
16
17
16
16
15
11
24
17
14
9
13
14
17
17
9
12
16
20
18
13
13
23
21
21
19
14
55
166
138
149
128
116
121
92
85
93
96
82
93
74
60
80
55
65
66
47
55
46
54
43
50
41
42
35
32
38
34
28
39
40
39
27
28
29
27
26
28
28
22
24
19
25
24
34
17
23
22
24
22
25
23
18
19
17
15
23
23
25
22
19
17
13
18
25
28
20
22
16
19
20
22
25
19
19
14
23
17
17
21
21
25
29
22
25
16
14
22
19
23
22
20
22
26
16
12
20
19
17
15
20
20
17
23
21
18
16
17
26
22
24
30
22
20
10
16
20
15
5
8
7
4
9
4
4
7
8
4
7
2
5
3
2
8
6
6
3
3
4
3
5
6
4
4
8
10
8
8
6
7
3
3
8
2
4
6
4
13
4
5
6
5
6
5
8
6
5
9
8
5
4
9
7
6
7
3
7
5
6
6
11
12
60
53
43
50
40
42
36
34
44
36
32
38
29
28
32
32
31
31
43
23
27
16
21
29
25
22
20
29
22
27
19
19
16
28
27
23
31
17
24
23
17
21
25
32
21
24
22
23
23
17
17
12
15
17
23
11
20
18
21
20
34
14
19
23
22
21
17
17
18
18
20
18
21
19
20
24
21
25
31
19
17
23
20
21
11
15
17
23
23
14
19
9
16
16
27
19
21
18
16
27
18
19
24
21
16
16
16
23
15
12
20
15
26
27
18
16
14
14
19
51
199
143
148
121
137
121
107
107
100
95
83
78
61
68
50
75
54
45
51
46
41
44
37
30
35
41
33
25
38
33
25
24
32
30
28
26
24
20
20
28
19
16
20
19
28
22
20
15
21
15
16
14
12
11
9
23
15
12
19
11
20
18
16
20
22
16
12
13
22
15
17
10
17
18
20
22
14
16
17
13
18
16
15
20
12
13
17
16
16
11
12
20
12
14
15
14
21
10
13
7
17
5
17
12
13
11
8
17
15
11
10
12
16
12
11
14
12
17
10
40
184
143
150
141
116
107
93
101
98
80
78
88
83
73
60
60
62
61
56
54
49
51
42
41
40
35
35
39
41
39
31
36
36
27
32
29
38
29
35
32
31
27
28
26
35
21
27
17
22
24
26
21
17
20
30
20
21
23
20
15
17
19
16
14
20
19
22
13
20
20
19
22
17
21
22
22
22
21
21
23
16
19
24
14
19
17
22
14
7
28
20
18
20
17
26
17
22
18
17
18
21
19
15
18
23
16
16
19
25
12
26
24
14
22
22
14
14
21
29
13
11
5
7
2
7
6
6
5
5
5
7
7
5
2
8
3
7
6
3
9
9
8
4
6
7
6
6
6
6
6
6
7
6
7
6
4
4
8
15
9
6
5
4
6
12
8
4
5
3
8
5
11
6
9
4
10
2
12
6
5
3
9
6
8
9
6
6
9
45
60
76
47
51
43
49
38
34
34
47
38
36
37
36
38
25
30
31
27
21
24
27
22
31
35
23
23
24
24
21
25
20
18
22
25
20
16
15
24
17
28
22
27
23
19
20
22
16
24
16
21
23
18
16
30
21
17
10
20
20
25
18
11
21
15
17
14
14
30
18
15
15
17
25
15
22
21
23
14
16
16
11
18
16
16
20
21
17
14
20
21
26
17
22
19
15
25
19
31
17
20
10
18
19
28
20
17
14
25
12
17
22
28
13
22
21
20
17
40
151
163
141
132
108
128
109
98
90
65
75
76
78
67
61
52
41
53
47
49
50
40
44
39
44
29
34
27
27
23
27
25
16
32
25
23
19
28
30
34
15
23
19
23
19
19
21
9
18
9
18
16
17
14
17
10
12
23
19
17
18
18
20
19
19
16
15
13
10
9
18
14
17
23
24
24
19
17
12
20
20
17
19
19
9
18
13
16
11
14
18
7
16
16
13
10
12
13
9
12
10
17
15
12
10
22
20
22
17
14
11
16
15
18
18
13
12
12
12
42
160
162
150
125
112
119
118
117
75
103
97
86
70
66
72
73
66
57
53
47
52
60
45
58
58
43
38
43
40
33
23
40
33
29
23
38
31
21
32
29
26
35
26
29
30
35
26
19
19
19
24
15
20
20
18
24
18
23
17
27
24
13
24
17
17
25
22
16
21
19
24
25
20
20
15
18
25
21
16
17
22
14
14
28
23
18
22
12
21
20
14
22
22
17
24
19
14
13
9
23
14
18
17
15
27
21
9
21
17
16
27
21
17
22
19
21
17
22
15
23
4
1
3
2
6
2
7
7
2
7
3
6
4
6
3
8
6
8
5
7
10
4
7
10
5
3
7
5
11
4
6
9
9
4
5
6
6
5
9
5
6
3
6
4
7
9
3
11
9
4
6
6
5
4
4
5
4
4
3
10
8
9
3
7
7
10
6
4
5
7
8
15
46
54
51
47
58
46
42
43
49
26
40
33
39
32
26
26
26
32
31
23
22
32
36
21
25
21
35
18
22
21
23
26
16
18
37
23
14
24
17
23
15
18
20
28
15
19
16
26
24
23
26
20
22
23
24
21
23
19
16
19
24
21
19
19
17
19
22
19
25
33
17
14
24
12
14
15
22
16
23
26
23
14
21
25
14
15
12
27
20
11
20
26
21
19
20
19
13
26
20
18
26
20
21
19
14
20
11
20
22
22
21
18
10
19
24
17
15
19
14
50
197
151
149
126
126
117
100
105
91
67
76
70
77
66
47
60
58
55
44
47
42
33
26
30
51
38
30
36
26
36
22
33
32
31
36
15
29
26
21
22
20
19
19
27
18
21
15
23
24
18
16
17
15
20
12
21
19
17
22
15
19
15
17
14
16
16
17
12
17
15
16
14
15
19
22
18
11
19
14
26
15
28
25
12
18
17
18
19
16
14
11
14
14
8
16
12
11
15
6
22
13
12
20
11
12
19
19
12
12
20
18
21
11
9
16
13
15
20
15
37
188
184
144
138
133
109
117
106
92
100
86
80
79
61
75
67
60
86
58
54
50
41
49
56
56
35
31
40
35
22
31
33
19
30
29
37
23
28
26
32
28
29
27
28
34
29
25
24
25
15
18
20
22
22
18
22
17
25
29
20
20
22
13
12
18
24
26
17
17
20
16
21
27
12
26
25
14
25
30
22
27
20
22
18
24
20
14
19
22
24
20
27
16
9
19
18
20
21
20
11
16
17
22
15
13
19
24
16
17
20
21
23
18
16
19
20
20
18
26
10
9
6
3
4
3
7
2
5
5
7
6
0
4
8
3
8
4
4
6
5
9
10
2
4
3
7
5
9
8
6
5
8
4
10
4
5
3
6
5
5
11
5
6
15
8
8
7
6
5
4
3
7
0
3
10
6
7
10
10
1
13
3
2
2
7
6
5
8
5
4
10
8
9
7
8
24
59
56
50
35
53
38
32
50
47
37
34
29
33
41
41
30
32
36
16
26
28
27
27
20
28
26
25
31
18
19
20
27
21
30
24
17
22
24
19
19
25
18
25
18
22
22
19
18
18
26
14
20
19
24
19
18
18
20
15
15
26
18
17
15
22
22
21
13
20
21
18
25
19
21
19
19
27
19
20
21
26
26
23
21
16
17
18
16
22
19
16
27
17
14
16
11
11
26
17
16
20
13
22
29
18
17
12
22
20
19
20
17
14
18
13
14
12
10
16
34
210
144
139
126
111
106
97
87
102
93
85
76
52
64
67
41
61
47
49
54
47
52
46
24
32
37
43
32
24
22
25
30
25
26
34
22
29
28
17
25
21
26
18
13
18
16
17
16
15
10
19
14
33
15
18
16
12
18
17
26
20
23
10
18
15
22
16
20
15
15
13
12
25
16
13
17
18
16
17
15
10
16
16
13
12
11
12
15
14
12
18
14
16
12
10
17
18
22
9
20
14
8
24
14
15
8
12
11
10
20
22
11
12
16
16
13
18
16
14
31
191
156
143
141
137
116
95
87
85
85
94
76
77
65
64
72
50
63
52
51
50
52
44
46
41
47
48
41
43
41
31
22
29
38
31
28
20
31
24
23
35
20
30
20
26
20
26
25
23
29
30
18
17
17
16
19
25
22
18
21
22
28
27
21
28
20
17
27
28
25
18
25
17
17
18
22
21
25
18
17
16
18
20
12
24
23
23
16
26
20
26
21
16
22
14
30
23
20
14
24
11
19
15
21
16
24
21
20
22
21
20
19
16
21
30
17
22
26
19
16
11
5
4
7
7
4
8
0
6
2
6
6
4
5
11
7
7
4
10
5
7
10
5
4
9
7
4
6
10
6
5
8
5
5
5
9
9
6
5
5
8
11
5
9
4
9
4
1
5
3
8
10
11
13
11
5
8
8
9
8
8
6
3
10
5
7
2
8
4
5
4
7
9
2
5
10
6
1
7
15
57
53
35
50
58
40
49
39
36
42
43
31
37
34
27
27
33
31
34
29
19
28
27
21
25
34
26
19
20
22
14
20
15
27
23
28
20
18
19
25
19
23
25
19
19
22
24
18
18
15
22
21
22
17
17
14
19
16
24
18
14
21
15
20
20
20
18
20
19
25
15
30
15
34
24
20
22
22
29
26
15
26
22
21
20
26
23
19
16
21
14
24
12
23
19
16
19
28
22
17
22
22
18
16
20
18
28
26
16
26
20
19
28
14
16
15
20
13
20
43
175
164
143
110
123
118
76
97
103
85
68
82
71
75
53
57
70
60
36
42
47
48
42
46
32
34
35
27
36
28
28
28
35
24
22
25
21
17
25
26
22
28
24
21
25
10
24
19
21
13
26
15
22
19
16
20
16
17
17
21
16
17
16
11
24
17
17
19
12
14
16
17
15
15
15
20
17
19
20
16
21
17
16
10
13
17
19
23
12
17
16
20
17
14
17
11
13
17
15
15
23
7
15
21
17
16
11
15
13
15
14
19
19
13
13
17
10
20
9
47
178
171
143
124
128
131
116
108
95
96
92
83
66
88
79
71
77
72
63
46
59
34
46
36
51
46
39
44
29
42
31
40
33
39
30
44
33
27
23
30
22
28
28
26
24
19
25
27
24
28
26
25
20
15
21
26
26
28
22
11
19
32
23
25
23
27
18
22
27
18
19
19
16
31
31
23
18
27
15
24
14
21
20
24
16
17
17
19
23
23
12
18
20
21
24
13
20
22
15
19
14
19
25
15
24
19
13
13
15
24
25
16
21
15
11
15
18
13
25
17
7
2
6
5
2
8
6
7
5
7
4
5
7
3
8
3
6
9
5
9
9
7
9
5
0
6
2
6
9
5
8
6
5
8
6
4
2
6
8
3
5
5
5
5
8
7
6
4
2
12
3
11
9
5
5
3
9
6
10
2
4
5
0
7
10
11
4
6
3
2
3
6
6
10
3
8
8
8
3
8
13
6
8
10
63
47
58
52
43
29
54
45
41
43
37
43
28
45
40
40
29
33
40
23
25
25
23
23
27
24
28
18
31
27
30
29
23
20
27
17
27
26
15
25
16
21
24
20
17
9
17
17
17
21
18
22
15
16
27
21
25
23
15
22
16
15
17
20
23
21
20
21
20
29
20
15
22
19
24
16
12
18
18
17
23
14
22
30
21
31
20
17
17
21
17
22
19
25
17
21
26
14
19
15
21
16
15
17
18
26
18
26
25
20
16
29
23
10
17
19
19
25
12
43
183
151
175
116
102
112
98
106
96
63
83
68
62
70
68
48
60
67
51
49
45
43
38
43
28
43
34
39
27
37
25
28
39
32
22
23
18
25
29
26
19
21
21
16
21
23
17
16
21
19
19
15
20
17
15
14
16
13
18
13
15
18
16
19
20
15
28
22
14
11
16
25
13
13
14
17
14
12
12
10
9
12
17
22
15
13
15
16
8
18
15
13
13
19
13
13
16
19
13
21
20
9
12
19
6
16
17
19
11
22
15
11
20
12
8
13
11
12
14
46
176
163
152
145
129
129
118
92
103
86
76
75
67
69
80
65
58
48
57
63
50
65
52
43
43
30
44
38
26
33
35
36
43
32
28
27
29
28
23
28
16
32
25
23
26
27
19
20
22
28
18
31
20
18
19
21
17
26
17
21
25
28
22
22
21
24
23
23
25
26
28
19
31
23
19
20
24
19
27
17
26
15
23
19
11
18
28
15
18
26
18
31
21
19
26
18
21
24
25
11
14
23
20
16
21
15
16
18
17
17
19
17
17
23
19
21
16
19
24
15
9
4
2
9
4
8
3
5
7
7
7
5
5
6
5
7
7
6
5
5
6
8
8
6
12
5
3
3
5
7
7
11
6
3
6
4
5
5
11
5
3
6
5
10
8
11
4
8
7
6
4
6
8
5
5
9
8
8
8
9
4
10
11
3
7
9
7
7
7
6
13
10
3
8
4
9
11
4
4
6
12
9
11
6
6
7
9
20
69
49
62
55
54
35
42
47
45
45
34
42
32
29
26
39
39
38
31
28
32
21
24
23
21
28
24
22
30
22
27
21
25
24
23
25
18
23
23
25
21
23
24
22
15
14
20
20
26
25
22
22
23
14
26
13
16
21
12
16
19
20
14
14
24
24
29
19
18
20
17
16
16
17
22
18
19
19
22
12
27
16
23
18
18
17
22
22
29
26
13
18
25
15
14
15
22
18
25
13
22
25
25
22
16
21
28
25
27
18
15
15
22
16
21
15
14
23
21
40
162
162
128
133
138
121
103
112
94
90
102
81
68
74
64
51
43
45
58
41
42
46
39
42
36
35
36
35
15
33
34
35
27
23
32
22
26
20
14
25
12
27
20
27
20
21
20
8
26
15
16
17
20
14
19
16
22
13
19
20
28
16
17
15
13
17
17
14
9
12
12
21
22
13
19
12
25
15
12
17
15
23
11
17
12
15
16
21
16
13
15
10
22
25
18
23
15
14
14
15
18
16
13
10
11
16
20
17
19
10
20
13
13
13
20
19
13
11
10
37
188
152
130
118
111
121
116
111
110
101
95
74
75
88
87
65
66
54
51
57
48
51
37
56
38
43
41
36
34
45
28
30
35
36
24
31
41
28
23
33
34
24
36
18
19
25
20
23
23
23
32
24
17
20
21
26
23
17
16
26
16
27
15
26
23
17
19
23
23
27
15
20
22
24
19
19
23
24
21
14
18
21
21
25
20
24
19
21
19
30
21
25
18
29
23
14
30
22
15
20
18
19
12
18
15
14
20
19
22
20
16
15
25
26
13
25
17
25
22
17
7
9
5
4
5
2
6
7
8
2
4
8
7
5
3
1
5
5
4
3
5
4
5
7
6
3
6
6
10
9
12
9
6
5
7
8
9
8
9
6
8
3
13
6
3
8
3
6
7
7
5
8
5
7
6
4
6
7
4
10
6
7
10
9
7
6
5
4
3
6
6
2
6
8
11
7
7
4
3
6
7
11
2
5
9
7
6
7
3
3
4
23
65
50
61
49
51
48
52
47
32
40
42
34
38
31
29
34
29
23
38
35
28
17
32
29
23
23
20
32
25
28
16
22
20
24
18
19
27
18
20
21
18
22
12
28
20
20
13
20
20
19
10
22
20
24
29
16
25
23
18
16
22
21
19
19
16
16
12
12
21
16
24
27
17
16
16
19
22
20
21
20
30
25
18
19
17
21
17
20
27
16
29
23
19
16
24
17
25
12
23
14
20
15
32
24
16
22
14
21
26
17
21
20
15
19
23
16
20
17
14
41
165
162
144
144
106
102
118
86
82
75
54
60
73
80
61
59
62
54
52
52
55
45
50
30
44
48
27
31
29
44
24
27
19
20
22
25
21
29
22
23
16
23
18
15
22
23
25
22
23
22
20
14
9
19
13
19
11
11
12
10
18
11
13
24
20
14
19
17
14
12
16
14
15
21
14
21
8
16
15
16
11
12
19
13
22
13
17
15
19
13
12
24
13
11
13
8
16
10
16
16
9
11
11
15
18
15
16
12
19
13
15
23
12
11
8
18
14
14
12
38
166
148
171
127
121
104
102
114
99
90
90
80
77
73
68
57
57
64
61
44
61
46
40
49
48
44
37
32
31
41
31
21
33
35
31
32
30
23
24
26
27
28
23
16
24
27
23
15
22
32
18
24
28
20
15
21
25
24
26
18
29
25
25
20
23
24
20
19
12
23
25
25
28
18
21
23
27
18
26
16
23
30
17
20
19
23
13
18
25
15
25
25
16
16
32
23
16
17
12
23
25
16
10
18
23
16
20
18
19
21
17
20
15
19
15
22
19
17
14
22
8
5
12
3
7
2
4
6
5
7
5
7
12
4
2
4
8
9
6
5
8
5
3
7
8
5
13
6
4
5
6
4
4
5
3
7
12
5
4
10
4
9
5
5
8
9
7
8
6
4
6
8
5
3
10
7
4
4
8
3
6
4
7
11
9
2
10
6
6
8
7
10
4
6
12
9
10
2
6
4
4
2
6
3
3
1
5
7
7
8
5
6
4
7
5
8
71
81
63
60
48
53
46
48
30
39
37
28
30
22
26
27
27
28
37
24
24
23
22
31
25
30
25
21
16
20
27
28
17
22
23
24
19
21
24
20
21
20
19
27
21
24
18
23
12
18
20
21
23
22
24
24
27
23
21
18
14
23
17
19
20
15
20
25
19
18
16
19
26
20
27
15
15
25
27
18
21
23
15
16
15
17
22
24
17
14
21
20
29
21
22
22
22
26
13
23
21
13
26
18
15
21
19
16
15
24
11
15
19
13
13
18
19
18
21
37
185
142
131
149
115
111
88
117
85
82
98
81
64
69
59
55
66
46
43
50
54
42
40
36
39
33
26
25
19
37
33
27
33
21
22
20
33
22
24
24
26
23
24
19
21
20
15
16
25
15
10
20
11
14
18
8
15
10
15
12
24
15
16
14
15
12
12
9
12
15
20
18
24
11
15
17
19
17
14
20
18
13
11
12
18
14
22
17
17
17
13
16
14
14
15
12
10
12
19
21
22
15
17
13
14
15
16
23
15
18
13
20
16
15
18
12
13
9
22
34
181
148
154
144
142
126
108
108
98
83
91
84
71
86
70
65
60
52
51
46
54
54
51
48
43
35
36
25
39
34
31
34
29
29
34
29
41
25
28
23
33
15
26
19
27
20
25
27
33
20
18
27
24
21
27
15
26
21
22
21
16
16
24
14
26
15
20
20
27
24
20
25
16
22
21
15
11
24
9
18
22
24
21
18
22
20
29
22
15
15
24
19
24
16
19
20
22
29
19
13
26
18
22
15
13
22
20
16
21
26
19
17
18
16
14
15
21
23
14
17
6
5
4
7
5
5
9
9
7
5
7
3
9
4
6
3
3
6
8
8
9
6
5
9
7
6
7
12
2
6
0
9
5
5
8
11
8
7
2
7
5
5
5
9
10
3
11
9
12
3
6
7
5
7
7
6
8
8
3
7
4
6
7
7
6
1
7
9
4
5
7
6
2
6
9
7
3
3
6
7
5
7
9
4
4
8
3
10
7
10
9
8
7
9
8
5
4
8
7
11
81
58
57
48
40
44
55
42
47
38
38
40
26
28
18
32
28
39
36
42
41
24
21
23
28
29
29
28
25
18
14
20
26
29
24
22
31
25
13
10
29
31
23
24
21
18
16
24
15
27
22
19
25
25
19
20
20
20
21
20
16
11
22
12
18
20
19
22
18
25
17
15
29
22
13
19
16
17
18
19
14
15
18
20
24
22
19
16
19
16
17
14
19
19
22
13
13
23
17
25
20
19
18
11
25
24
18
23
10
15
25
19
20
16
22
31
13
18
22
55
162
127
132
141
106
118
98
83
99
80
72
72
53
71
73
58
46
46
54
56
49
52
37
31
26
27
27
28
31
27
33
29
25
24
30
33
21
19
21
29
18
21
17
16
26
19
15
19
13
23
17
14
19
23
20
12
20
18
15
23
24
16
21
15
14
14
13
14
17
17
20
18
17
13
19
15
18
12
14
27
12
17
9
14
17
10
11
14
11
18
12
16
18
13
14
19
15
17
15
18
14
19
17
12
20
18
12
13
14
17
24
20
9
13
20
12
14
11
15
34
176
156
137
151
124
112
100
99
103
103
99
83
67
74
63
66
71
56
66
51
61
43
39
50
48
37
38
30
26
32
46
36
34
23
21
30
27
30
28
22
21
26
24
24
23
34
24
19
19
20
17
18
14
29
14
18
20
14
23
13
22
25
17
16
19
17
20
25
28
20
22
35
19
27
19
13
18
19
10
27
21
17
19
19
19
17
17
20
21
15
21
19
24
19
18
15
18
27
19
18
15
16
14
21
16
21
25
19
11
25
22
21
13
14
17
15
22
16
26
16
6
4
4
5
3
7
10
7
9
8
6
7
6
5
6
6
8
2
7
6
8
12
6
9
8
6
4
6
7
7
1
10
8
6
4
7
7
6
7
6
7
4
4
3
6
6
2
11
6
6
11
4
5
6
12
6
6
5
8
11
3
4
7
5
2
5
5
7
9
2
3
6
5
4
4
8
5
7
7
3
2
9
11
5
5
6
5
5
9
9
11
7
7
8
6
4
8
2
6
5
4
7
4
21
70
67
83
58
51
50
50
48
52
51
41
44
27
25
26
31
36
21
34
31
32
36
36
22
30
31
21
28
32
21
18
17
23
19
17
23
12
19
17
18
20
17
30
10
23
17
23
23
15
23
27
19
23
23
11
18
14
14
25
8
21
11
23
27
15
19
17
23
19
29
22
11
17
25
21
28
20
15
17
24
19
25
24
13
24
26
13
18
16
16
32
25
24
16
18
28
17
18
26
22
25
14
11
11
24
21
12
17
21
30
25
24
18
16
15
10
13
20
19
50
143
159
126
145
126
96
99
88
85
79
81
73
72
64
46
49
54
56
62
44
37
30
35
36
43
32
40
33
40
30
16
25
28
40
29
18
23
33
21
28
14
18
26
29
16
20
13
16
16
12
13
17
19
16
22
20
14
14
15
11
18
20
14
19
13
19
14
19
18
16
17
10
21
17
16
19
14
15
20
14
13
16
12
17
12
15
11
20
16
8
15
7
19
15
23
14
15
19
15
15
15
17
7
12
22
15
19
16
11
18
12
14
21
17
11
17
26
11
21
49
176
152
154
131
125
115
125
104
86
95
84
78
80
62
71
48
53
55
56
51
39
59
38
39
47
46
40
32
33
30
27
30
21
34
30
34
32
36
27
25
22
33
27
22
20
25
36
20
26
20
20
13
15
27
24
19
23
18
17
15
21
21
16
24
20
18
21
20
19
20
18
25
20
17
26
21
29
23
19
32
21
12
11
19
27
27
20
14
21
19
18
16
17
22
21
18
13
21
14
26
18
14
16
20
20
28
23
21
18
23
18
17
27
17
20
26
13
16
27
24
9
8
2
7
6
9
7
3
3
4
3
6
6
6
3
9
2
4
5
3
4
5
6
10
2
3
7
5
6
11
7
5
4
8
4
6
8
7
6
5
7
11
4
5
7
6
6
2
7
8
9
7
5
9
7
12
5
4
4
7
5
4
8
5
7
9
4
6
7
7
8
8
12
8
8
10
4
4
6
6
7
2
5
7
6
5
10
7
8
3
4
7
9
3
6
8
8
3
5
4
6
4
5
4
7
10
10
6
61
58
49
56
45
38
49
37
40
28
41
36
31
40
24
41
39
18
35
31
21
29
25
28
24
28
28
25
30
16
22
21
23
29
28
21
30
17
22
17
23
25
23
17
22
22
19
12
18
20
11
18
28
22
26
20
25
21
12
20
19
20
21
16
22
21
16
20
27
18
15
19
20
19
21
19
11
32
11
20
25
26
19
23
19
15
18
19
18
15
14
15
20
17
22
16
23
18
14
15
17
19
20
12
22
27
21
16
20
18
24
24
17
22
30
28
19
22
21
46
174
144
140
121
156
104
94
105
105
78
74
81
72
56
65
66
49
60
61
45
51
51
37
40
39
34
18
38
20
28
23
32
25
32
25
21
25
26
20
17
14
23
15
20
24
25
19
20
15
24
15
15
15
19
20
19
14
19
13
17
14
19
15
14
17
18
11
10
23
16
15
19
14
18
11
20
15
13
12
24
13
23
25
11
18
13
12
8
17
8
12
15
12
15
23
21
10
29
17
21
11
19
8
10
15
10
21
16
20
14
14
17
16
12
9
20
10
11
14
37
167
154
154
129
126
124
115
115
85
104
78
60
73
68
58
49
67
49
46
52
56
58
54
43
48
39
37
44
44
42
21
38
23
38
21
28
23
25
31
19
36
28
18
18
20
31
25
24
20
26
24
17
25
21
23
17
20
17
19
25
36
26
27
22
24
22
19
20
15
22
26
26
23
15
11
18
21
23
22
21
18
13
20
24
25
17
24
10
22
23
20
23
21
18
18
18
18
17
27
14
15
15
21
15
23
12
19
20
25
17
21
12
17
22
14
21
26
19
22
16
7
5
7
7
8
6
5
10
9
8
4
2
5
6
5
6
5
8
10
9
7
8
6
9
7
6
4
8
1
7
5
7
6
7
5
6
7
15
4
6
6
10
4
3
5
9
7
7
13
4
9
7
9
8
7
8
4
7
7
8
4
6
8
9
8
8
6
3
5
4
8
3
5
5
3
8
6
7
10
9
3
9
6
11
3
5
9
1
7
5
5
7
3
7
10
2
10
11
9
6
7
5
6
2
6
7
6
4
5
7
3
16
63
75
47
47
40
45
57
40
57
39
44
39
30
37
28
32
33
44
31
33
22
24
16
26
24
27
23
34
14
17
17
19
19
31
23
16
18
27
18
17
20
18
35
23
18
28
22
14
21
19
16
18
26
20
23
17
19
21
19
17
18
25
19
26
18
22
17
14
20
18
32
24
15
18
17
18
19
18
25
20
19
22
18
20
22
21
13
12
22
19
18
22
21
17
18
14
21
28
24
13
21
11
30
24
18
21
12
13
19
24
17
17
14
25
18
18
26
17
28
35
180
155
149
137
122
132
106
89
85
92
78
75
66
75
49
54
56
54
40
41
47
39
44
44
36
28
33
38
30
28
21
29
24
31
25
19
30
24
24
16
23
25
25
25
25
18
15
17
15
29
18
20
15
18
21
22
17
14
16
17
11
12
16
11
10
26
20
14
22
9
11
24
24
11
15
13
15
19
23
15
6
13
23
24
14
17
10
18
10
11
23
17
15
19
14
15
22
14
19
14
10
19
13
13
20
13
21
12
17
20
14
13
14
13
18
9
20
13
12
44
178
143
143
130
125
118
104
104
110
96
95
71
66
68
59
78
56
46
47
65
52
61
50
43
44
38
39
35
28
29
37
31
36
16
37
37
26
28
22
30
35
18
33
24
31
27
31
18
22
19
18
16
23
17
16
24
29
32
23
23
24
13
30
24
19
14
25
25
19
16
18
19
26
16
18
27
25
18
15
32
24
11
20
17
16
14
17
13
33
22
21
14
13
20
19
15
22
19
22
20
21
19
26
15
18
21
23
22
22
18
26
22
21
28
19
19
19
10
7
17
5
10
5
7
6
6
2
4
7
5
5
5
4
5
4
5
5
8
8
10
5
3
9
4
8
4
9
9
4
4
5
7
5
8
1
4
4
10
12
10
4
2
7
7
5
7
3
4
8
6
9
5
5
10
5
7
2
6
4
7
1
4
7
6
6
4
9
1
6
8
7
4
3
10
4
9
3
8
8
5
4
5
7
7
12
9
4
5
5
8
9
8
7
10
4
5
11
8
11
8
6
7
12
1
4
5
7
8
11
11
7
6
10
10
12
16
74
60
57
61
58
43
51
43
38
33
36
39
33
34
25
33
33
30
33
27
28
25
22
36
32
23
27
27
27
27
21
22
26
16
20
17
21
20
25
19
28
24
16
26
21
17
18
19
19
19
21
19
14
15
18
15
23
20
12
19
22
22
19
16
21
20
13
25
23
21
24
15
18
21
27
21
18
15
22
23
20
16
27
17
13
27
21
17
16
17
19
20
14
15
17
14
17
16
14
13
21
27
24
21
18
23
22
15
28
16
17
25
15
21
23
27
28
16
22
34
176
163
148
145
142
100
112
89
95
85
74
75
65
78
69
64
60
47
53
46
50
49
36
41
33
37
28
31
30
37
39
30
30
29
28
33
26
22
17
26
8
20
26
17
16
19
14
14
26
13
16
14
19
18
14
20
19
11
22
13
16
12
19
24
19
19
14
21
20
16
22
21
18
13
12
16
11
13
13
15
21
17
20
12
11
18
19
11
16
11
15
15
12
18
15
16
20
18
14
19
11
24
12
18
15
18
20
21
16
3
13
19
14
16
16
11
13
13
15
35
155
152
147
136
133
114
114
88
95
91
87
98
78
77
70
70
58
51
54
51
49
39
44
39
38
48
39
41
42
26
25
24
33
33
30
26
29
29
32
22
25
21
23
31
38
17
25
17
26
16
16
24
24
26
26
18
21
22
22
19
29
21
24
22
16
28
35
15
14
13
24
26
20
14
24
17
14
21
20
15
23
20
10
23
15
27
16
28
15
20
19
18
12
13
15
16
19
27
28
17
22
23
24
15
18
17
22
17
16
15
28
22
13
16
18
20
23
17
20
23
8
6
5
3
5
5
3
8
5
3
7
7
3
12
4
13
5
8
7
8
7
6
8
8
5
5
5
7
3
6
2
11
5
6
9
5
8
5
8
9
6
8
5
4
6
5
9
10
6
7
12
2
10
5
4
6
5
8
4
7
5
8
3
5
4
6
9
4
9
7
8
1
6
4
5
10
6
6
5
9
9
5
10
5
6
7
6
11
7
3
6
8
14
7
9
2
8
9
6
9
12
8
9
8
7
5
5
11
8
8
6
8
6
8
4
9
4
11
4
14
66
64
59
68
44
63
59
54
52
36
32
44
39
35
38
42
33
42
30
26
22
21
33
25
27
27
28
20
27
33
24
26
26
29
27
17
21
23
17
20
17
23
19
20
18
19
19
24
17
20
21
24
25
15
15
25
28
14
27
20
24
18
16
18
18
13
27
15
23
24
14
23
19
19
25
17
22
24
26
20
21
18
17
19
14
22
16
15
17
19
18
13
12
16
10
20
10
16
21
17
14
10
18
21
18
15
14
17
23
18
15
22
18
21
7
23
21
17
19
46
158
162
144
120
129
112
94
80
88
82
92
83
65
77
64
59
59
55
39
47
42
38
38
52
32
37
41
37
32
29
29
25
35
36
16
22
14
15
27
19
22
25
25
22
24
14
15
17
21
14
20
11
11
16
19
22
13
15
19
14
19
22
21
19
18
13
14
15
16
17
22
18
16
19
15
21
12
18
19
13
10
17
17
19
13
18
8
15
19
10
18
13
18
16
15
23
15
16
17
15
18
10
19
11
15
14
19
19
12
11
18
10
12
10
10
16
13
11
12
30
163
172
148
138
121
122
109
121
86
92
87
87
95
70
60
56
65
52
59
68
53
42
45
51
34
42
37
35
43
40
35
30
33
27
23
30
27
28
37
24
26
15
30
22
28
21
21
24
17
26
27
19
21
25
22
24
27
18
21
19
15
22
30
21
13
15
19
17
24
23
16
16
17
33
28
29
23
19
27
27
24
17
26
21
26
25
25
23
21
23
19
20
17
14
13
15
23
24
27
21
18
23
23
21
18
29
18
17
17
17
21
13
16
24
13
14
21
18
15
21
6
4
3
8
6
9
2
5
3
7
6
5
7
2
7
7
4
4
7
4
10
4
5
8
4
8
8
3
6
8
12
9
9
5
5
3
8
7
11
5
10
4
7
5
5
5
7
10
7
6
4
6
3
3
4
3
3
9
12
12
3
11
7
2
7
9
5
5
4
10
6
6
7
4
5
6
5
5
6
9
3
6
4
11
5
8
7
6
4
6
4
6
4
7
4
3
4
6
4
6
5
5
5
4
9
4
8
4
4
4
5
6
10
4
8
7
9
3
4
12
7
7
7
11
70
77
55
50
58
40
49
46
57
49
39
36
50
30
47
40
36
27
32
29
36
26
26
24
19
27
20
31
25
25
31
19
17
20
25
21
21
19
24
25
21
26
25
25
20
21
18
15
16
26
19
19
28
22
21
17
13
14
27
24
14
20
16
17
22
20
18
15
19
20
22
22
13
34
31
26
21
17
19
26
19
20
18
15
21
17
25
22
23
17
24
17
19
17
26
19
19
16
17
19
26
13
19
22
10
18
22
17
16
22
14
18
16
20
13
19
26
21
21
40
189
153
137
138
121
125
109
106
90
94
88
71
60
58
59
59
51
48
58
47
39
47
30
39
44
29
26
29
31
39
15
28
26
21
24
21
24
22
21
17
29
25
18
13
21
20
19
22
14
27
21
12
19
17
16
13
11
14
16
16
18
23
9
14
14
22
10
14
15
13
19
13
13
13
14
17
12
8
14
13
14
14
12
13
20
18
17
17
9
14
12
16
16
27
13
18
18
13
16
13
13
11
18
13
13
17
12
24
15
10
10
15
19
12
18
12
11
9
14
28
172
138
138
130
118
103
131
93
99
74
82
94
89
67
73
63
55
56
58
51
54
56
51
47
43
39
40
25
59
30
28
34
34
35
24
24
30
30
28
27
26
25
33
27
33
32
26
22
37
21
21
17
22
19
23
21
10
24
20
20
25
27
22
26
22
19
20
18
20
14
23
18
19
26
26
8
19
26
21
14
19
20
28
14
14
21
25
23
22
17
22
18
20
12
21
10
16
21
26
26
27
21
18
20
15
20
21
25
17
19
18
12
17
18
16
26
23
23
19
21
7
7
7
5
9
2
7
7
4
4
4
5
4
10
7
9
6
6
3
5
5
10
5
6
4
6
6
2
8
6
5
6
4
6
5
9
5
7
7
4
8
1
8
4
8
7
6
3
8
5
5
5
3
4
5
9
4
8
11
7
4
8
7
2
8
6
5
6
12
3
2
8
9
9
3
6
2
10
5
7
5
8
9
8
7
7
3
6
8
10
4
3
6
3
10
3
2
8
4
6
4
9
7
6
2
5
9
4
7
4
7
7
4
5
9
5
4
4
10
7
10
6
2
6
4
8
5
23
77
58
61
65
51
52
54
58
51
46
44
55
39
27
37
32
28
28
30
40
28
27
23
23
31
28
23
38
29
25
21
21
17
23
22
20
16
19
22
14
26
15
19
20
20
23
21
21
15
28
18
24
16
20
14
14
21
28
24
25
16
20
13
14
16
19
13
19
33
22
23
21
19
27
21
23
22
21
20
20
22
23
28
31
15
16
15
19
17
15
18
22
17
22
22
18
19
21
17
19
23
20
17
25
24
24
19
21
15
20
20
12
17
20
20
25
19
23
25
31
192
156
154
136
111
136
108
92
83
86
64
88
70
68
59
76
56
43
44
34
48
53
35
27
40
23
43
29
21
21
24
27
19
31
25
28
15
23
24
28
25
16
20
18
23
16
20
17
20
13
13
18
14
16
21
15
11
17
15
18
12
14
14
13
18
10
15
24
16
16
21
15
12
20
15
20
19
16
15
18
13
15
13
7
18
19
16
17
15
20
20
18
16
19
15
12
11
15
13
15
16
15
17
13
18
12
13
10
17
13
13
16
14
10
17
17
12
8
19
45
169
140
123
143
129
117
91
98
75
94
76
89
77
71
75
56
60
64
48
46
49
49
57
59
42
53
45
39
39
48
41
40
31
28
37
34
31
32
26
31
18
27
24
27
18
21
28
27
24
29
19
23
20
27
26
24
18
14
16
24
17
24
13
22
24
25
18
25
20
17
12
28
21
26
14
14
13
25
25
17
25
15
16
25
19
18
30
16
12
28
14
22
26
25
18
23
20
22
26
17
24
16
14
10
20
20
20
22
10
19
26
19
9
27
14
15
16
14
23
22
9
6
5
3
6
5
5
6
2
2
12
6
4
4
3
4
7
7
10
6
8
4
4
7
8
12
8
5
11
4
8
7
9
5
5
5
9
6
6
5
5
9
9
6
4
3
7
6
6
3
3
7
13
8
8
5
3
8
5
3
3
4
2
6
6
9
5
6
5
7
2
5
4
13
5
7
4
3
9
7
4
5
2
7
4
7
7
7
7
5
4
2
6
7
9
5
9
3
8
5
5
8
8
5
6
5
7
10
4
8
1
5
9
3
7
2
12
2
9
3
6
6
7
6
7
10
2
10
9
9
9
23
67
52
46
68
59
46
42
50
41
50
51
55
34
43
31
33
32
34
26
30
31
26
23
31
32
27
29
22
31
21
30
23
34
20
16
27
27
24
23
16
19
25
32
18
22
12
22
25
20
29
26
27
23
25
18
24
25
21
24
26
21
21
18
18
19
18
15
26
21
21
18
27
31
24
18
18
17
13
22
11
15
24
13
19
23
15
18
21
23
19
17
14
21
25
23
26
13
8
12
13
15
20
17
17
17
24
16
18
17
13
25
13
16
25
33
21
16
22
29
38
158
164
154
134
130
133
110
95
94
81
82
61
64
60
87
65
61
42
48
39
64
47
51
35
37
32
43
30
34
34
33
34
28
26
26
18
29
25
20
19
19
30
20
22
25
21
25
28
23
29
20
22
11
22
18
16
13
12
17
12
16
16
22
18
16
11
16
16
18
15
15
15
12
18
20
16
18
25
14
17
26
15
12
20
10
19
13
13
9
12
18
10
20
11
16
20
18
17
18
16
10
12
12
18
20
19
15
12
12
12
12
14
10
17
19
13
12
17
15
35
163
172
152
123
115
124
111
105
95
94
105
61
72
83
62
62
83
62
52
65
37
51
53
49
53
37
35
29
38
34
32
35
30
22
36
30
25
18
26
17
32
24
16
37
27
22
24
26
29
34
22
17
21
37
28
26
25
17
11
17
17
19
16
18
23
19
25
22
24
16
23
22
20
17
16
17
20
30
21
25
24
25
18
11
27
17
18
18
19
14
19
19
19
19
20
15
23
21
27
22
19
15
22
13
19
21
22
26
22
27
25
20
17
15
19
10
21
15
15
15
7
8
3
11
6
2
5
4
12
6
12
3
6
6
5
7
8
6
12
8
7
5
7
3
3
2
5
3
1
6
5
4
10
4
5
5
5
3
6
4
8
1
3
7
7
5
8
8
9
3
8
6
8
10
6
6
8
6
3
5
7
5
6
10
5
6
5
6
4
7
10
3
5
8
6
4
2
12
10
4
7
7
7
4
7
4
8
6
5
9
10
8
7
5
5
5
9
4
9
6
8
7
9
7
4
10
9
2
10
6
5
10
8
10
8
4
6
5
12
8
2
6
6
8
3
2
4
9
6
7
3
8
9
10
5
10
65
75
73
66
64
39
60
46
38
36
50
44
36
34
26
43
40
19
29
17
33
29
26
22
21
19
22
24
26
17
28
17
20
25
25
22
19
18
24
25
31
26
29
24
20
23
14
25
13
24
25
20
23
21
26
19
17
22
27
23
12
19
14
18
23
14
30
18
21
15
14
18
19
11
16
24
22
17
23
14
14
17
22
24
18
17
16
23
26
19
19
10
31
26
12
24
15
18
22
16
19
17
15
21
20
15
27
11
15
20
21
26
17
23
15
27
17
22
22
47
182
122
133
132
135
115
112
99
68
73
77
74
75
70
45
42
68
56
50
50
48
42
40
36
43
44
36
31
33
25
30
17
28
25
28
26
31
27
21
19
22
25
16
23
23
14
16
15
13
14
16
18
21
9
19
16
18
15
20
18
15
19
22
17
9
18
13
16
16
15
12
22
16
19
15
14
16
19
11
16
8
12
11
16
23
13
12
21
15
8
14
13
15
17
16
13
23
13
17
18
18
14
9
14
8
14
13
14
20
21
15
10
17
15
17
17
9
14
15
34
173
127
138
121
121
109
100
99
94
68
86
96
76
58
65
72
76
54
54
41
62
60
47
33
47
43
33
40
39
27
41
34
49
32
32
20
36
35
30
18
29
29
20
21
35
11
23
29
12
24
21
28
18
28
16
24
16
20
23
17
11
14
20
23
16
24
13
25
19
20
20
23
20
17
26
25
14
22
28
24
16
16
27
22
22
19
20
16
20
12
20
24
21
17
27
19
16
11
23
23
21
19
21
16
16
13
24
19
18
15
31
19
16
22
13
15
24
25
13
15
12
6
4
9
7
3
4
7
7
8
5
6
5
7
9
7
7
2
7
2
4
5
5
8
10
5
6
8
7
7
6
3
5
6
4
8
5
3
9
10
3
9
8
2
4
4
7
9
11
4
2
9
8
5
7
5
5
5
7
6
4
6
2
12
8
7
4
6
8
8
4
10
6
9
10
10
8
8
7
3
9
8
7
2
9
2
9
10
4
5
5
5
6
14
5
5
6
14
8
7
5
3
8
6
2
6
5
3
6
8
5
4
6
10
6
8
8
8
7
6
5
10
4
8
6
8
9
9
5
3
4
3
8
5
4
3
11
8
4
19
94
67
61
52
57
51
55
59
49
41
38
39
47
43
36
37
42
28
33
30
29
29
29
21
19
33
23
31
38
24
25
20
20
28
38
24
12
32
29
28
22
17
26
25
15
13
26
30
19
15
25
18
25
26
16
12
18
16
14
17
14
19
23
19
10
29
23
16
25
18
31
27
24
21
18
24
18
18
24
12
17
15
17
16
19
20
20
25
17
20
25
25
18
18
21
29
19
28
20
30
22
16
10
20
17
21
21
15
24
31
27
24
23
13
21
21
21
18
23
53
173
141
139
139
116
92
123
95
100
90
85
86
72
78
70
59
55
41
58
38
39
46
41
35
40
29
22
38
42
35
28
22
20
26
26
27
34
18
19
21
21
15
22
8
14
14
18
10
16
13
19
20
23
19
12
15
17
22
12
21
12
12
16
12
16
15
18
12
16
21
18
17
10
21
14
14
12
16
18
12
20
5
13
12
13
9
20
17
11
16
21
16
28
15
16
12
23
19
12
18
14
14
12
13
19
10
15
13
15
20
13
15
17
13
13
15
18
17
10
38
170
140
149
143
113
125
106
105
85
88
83
85
81
80
85
69
66
57
72
53
43
41
37
38
42
45
33
32
43
36
27
35
36
29
35
20
26
26
33
31
29
21
22
27
28
26
36
31
19
21
27
18
25
23
21
25
17
21
25
27
18
19
26
19
19
22
18
16
24
27
28
28
31
28
14
22
20
24
16
19
17
28
20
23
17
20
29
14
22
25
15
18
25
17
19
16
15
20
21
22
18
14
18
14
21
23
23
13
19
25
21
26
13
17
23
23
21
17
24
20
9
5
5
6
4
5
3
6
7
5
5
6
10
4
2
6
4
8
9
4
5
6
13
5
4
6
7
3
8
8
9
9
6
9
4
5
3
9
6
4
6
3
9
8
4
6
4
0
7
5
2
11
4
7
6
4
4
9
6
7
5
7
9
7
8
5
4
6
5
4
6
6
6
2
5
8
9
3
4
12
3
12
3
7
11
11
9
10
6
6
3
6
6
4
10
8
8
10
7
6
6
3
7
7
9
4
9
2
3
3
6
5
6
9
9
1
8
7
5
5
8
8
5
6
9
13
7
8
6
8
4
9
5
6
6
12
11
5
11
9
6
5
4
20
72
69
82
58
60
41
59
53
38
60
40
43
39
40
35
30
38
32
29
25
24
35
35
34
35
26
24
24
27
27
22
18
26
16
20
25
21
24
27
20
23
30
16
16
19
22
21
21
20
18
11
15
18
22
14
21
24
21
14
16
23
20
19
20
23
22
18
19
23
23
20
28
22
24
27
22
15
19
33
21
24
23
21
18
23
18
21
15
15
21
16
17
23
19
25
18
21
28
16
12
14
15
28
17
20
8
23
22
14
18
10
14
28
21
18
17
16
12
19
45
187
129
162
126
112
110
91
103
79
73
79
73
61
63
63
65
48
45
44
41
37
58
39
43
45
32
22
36
35
25
36
29
27
23
21
23
24
30
17
22
19
24
14
15
13
19
21
17
13
18
19
17
19
28
11
13
24
12
16
20
29
16
25
17
14
15
19
18
15
18
17
16
19
19
11
5
17
13
18
13
11
21
13
10
15
13
12
11
16
15
14
11
15
10
10
18
10
13
15
15
16
10
8
14
15
15
14
10
13
14
9
8
16
13
20
16
17
15
15
37
184
174
150
148
133
106
82
96
100
106
86
98
67
82
77
63
57
59
50
47
42
56
52
45
36
49
38
41
53
37
33
35
24
23
31
34
41
30
25
21
23
20
21
25
21
27
23
24
20
28
22
17
25
29
21
31
29
24
21
20
15
19
19
20
11
20
21
20
15
23
22
27
23
24
23
21
22
16
32
29
21
19
15
21
15
16
19
24
17
26
15
19
17
26
25
25
13
19
24
22
15
15
23
20
16
23
11
18
30
13
25
22
17
18
15
17
24
19
25
16
8
5
8
5
7
8
2
5
9
3
8
4
5
3
5
5
5
9
0
5
7
8
7
6
8
7
8
4
2
11
13
5
6
8
7
8
8
6
7
4
5
5
8
7
4
6
5
7
8
12
2
7
4
7
8
7
6
8
8
6
2
5
5
8
4
9
3
8
4
2
3
7
6
3
10
6
7
2
9
5
5
9
9
1
6
3
4
5
5
2
7
7
6
8
3
7
6
6
8
5
2
6
6
2
9
9
6
10
6
9
6
4
8
6
8
4
7
3
10
7
5
6
3
6
5
2
6
6
7
6
5
11
5
12
5
8
6
13
6
9
9
9
1
5
6
5
7
12
84
78
57
59
56
55
55
58
36
45
46
48
27
49
44
33
35
40
35
27
30
41
32
21
29
19
28
15
24
22
28
19
23
17
27
27
27
22
29
20
24
19
22
18
26
22
22
19
25
19
24
25
22
20
13
29
16
16
12
24
13
16
22
20
17
17
16
18
18
18
27
22
17
16
23
16
26
19
27
25
8
20
15
20
20
12
17
15
13
19
16
18
32
22
22
19
18
27
21
24
28
13
20
19
23
11
11
14
13
19
22
15
16
17
8
27
14
18
18
49
163
178
134
143
113
108
116
111
94
107
80
77
76
76
64
57
47
55
47
51
43
35
41
35
39
42
41
30
25
30
24
25
22
24
21
37
20
23
21
20
12
21
12
16
20
15
16
31
16
21
27
22
18
10
25
20
7
11
18
14
16
18
16
13
18
13
13
11
20
14
16
18
20
15
13
19
18
23
14
12
22
18
21
17
12
12
23
10
15
9
16
16
17
8
21
13
12
12
16
14
10
20
14
13
10
11
10
14
13
18
16
12
11
13
16
12
15
16
16
39
165
149
127
134
138
125
99
98
100
97
91
84
80
80
69
70
61
60
48
52
54
55
52
47
46
54
43
45
29
32
29
37
36
33
36
30
31
38
29
24
19
31
26
39
24
27
17
24
20
26
23
22
22
20
24
26
19
27
16
18
22
16
20
14
15
28
24
16
15
16
16
19
21
22
26
20
10
10
26
19
27
22
20
23
20
19
20
23
21
22
16
15
14
19
28
14
17
18
19
20
20
19
12
16
15
18
20
23
21
17
15
20
20
22
19
23
11
20
20
24
9
12
8
5
3
2
4
5
11
5
8
9
7
6
12
7
6
9
6
8
9
4
3
6
8
12
6
5
8
6
5
4
8
9
10
9
3
7
4
5
11
7
6
6
10
9
4
9
9
6
10
8
7
5
9
9
7
5
4
2
5
9
5
6
7
5
7
9
8
3
5
5
9
7
3
4
11
3
5
7
6
6
8
4
7
6
8
2
6
8
5
6
7
6
6
8
6
5
8
6
5
8
6
7
3
8
5
5
6
8
5
10
6
6
9
9
7
15
6
5
11
6
6
8
9
6
6
12
5
6
7
4
8
8
3
12
7
3
11
7
6
7
2
5
6
7
6
6
4
5
8
12
72
54
55
75
48
66
55
54
49
43
30
40
35
34
38
50
40
21
38
28
45
40
34
27
26
26
23
21
21
26
20
28
24
27
33
27
27
25
20
32
20
13
23
22
19
23
24
23
19
22
18
26
20
19
17
22
23
23
14
19
24
22
29
18
25
21
17
18
30
15
22
19
16
24
15
13
18
20
19
17
16
29
26
17
16
18
17
19
23
23
16
15
18
22
14
22
12
17
24
18
29
24
15
16
17
25
15
16
18
23
18
18
20
15
23
21
18
24
17
37
171
171
155
126
120
117
99
91
99
97
80
68
74
61
75
49
43
52
47
59
44
37
43
32
32
25
28
35
39
33
34
27
19
25
21
22
38
25
23
14
26
20
20
25
23
23
20
15
10
17
13
18
16
16
15
18
17
12
25
20
16
15
12
8
10
13
25
20
17
15
21
18
11
22
8
19
14
13
12
9
12
17
19
19
15
16
16
12
16
16
19
15
20
7
13
7
17
14
11
12
14
12
16
19
13
10
19
13
16
13
11
22
21
19
16
16
10
12
21
40
177
165
140
120
132
133
115
101
104
85
93
83
85
76
59
81
63
51
61
52
43
45
45
40
43
37
42
33
38
40
28
44
24
37
30
31
28
25
36
27
31
36
15
29
31
24
29
26
18
19
28
25
26
24
20
22
24
21
20
16
21
21
19
16
22
25
15
10
15
12
29
16
19
21
23
25
14
23
16
19
22
13
19
17
18
15
25
22
14
28
19
19
19
15
18
14
27
18
19
24
20
24
14
19
18
16
15
22
18
19
23
18
14
12
25
13
24
12
14
25
9
3
8
7
5
7
6
3
4
5
8
5
5
8
6
5
4
6
6
5
7
6
9
9
3
7
3
6
5
6
6
5
11
7
6
4
8
9
8
8
4
7
7
6
3
8
7
9
3
8
6
4
5
5
8
5
7
3
4
7
7
3
8
10
5
8
5
10
3
5
9
9
6
7
6
7
6
9
7
6
2
4
3
3
4
1
7
7
10
7
5
5
4
8
4
10
10
8
9
10
6
6
6
6
4
5
6
5
4
5
13
2
8
10
3
11
7
8
4
13
6
7
7
7
6
7
6
7
6
6
5
5
5
12
4
7
7
2
10
8
7
6
6
7
9
4
6
9
9
6
11
8
9
10
3
20
86
59
73
54
66
61
50
53
49
39
48
54
37
39
31
33
34
32
35
31
32
31
33
37
28
31
33
27
14
34
29
19
25
31
23
21
20
29
15
25
22
23
18
14
21
19
9
28
22
17
16
27
24
23
16
30
29
19
16
19
14
21
16
10
11
20
24
25
23
14
16
24
26
16
21
32
25
27
20
10
10
21
25
14
22
23
24
28
19
22
22
16
15
19
16
11
26
16
18
13
17
13
20
7
21
26
21
20
20
24
14
25
14
25
18
20
17
15
21
19
8
5
5
13
4
4
12
5
11
6
3
8
3
3
2
4
6
4
8
1
4
9
4
7
6
5
2
10
3
4
1
5
2
5
4
4
2
4
6
7
6
4
4
4
3
4
3
5
7
6
2
4
5
5
4
6
3
6
3
2
4
3
4
4
5
6
11
4
2
7
6
4
2
4
3
3
8
2
7
6
5
5
6
5
5
4
7
0
4
6
9
3
8
4
5
5
3
7
2
6
8
7
5
3
2
6
3
3
3
2
1
3
6
4
4
3
1
3
5
2
3
5
1
3
3
5
5
5
1
2
3
4
9
1
6
3
3
2
8
3
6
9
7
2
5
3
9
3
3
4
1
3
5
5
3
2
4
1
6
5
6
6
5
6
9
8
7
3
6
6
6
6
7
0
4
3
1
4
3
2
5
6
3
3
4
2
1
5
