#Saved Data from the class pulsed_measurement_logic on 18.11.2022 at 16h59m44s.
#
#Parameters:
#===========
#
#bin width (s): 5.0000000000000001e-09
#record length (s): 8.6824999999999996e-05
#gated counting: False
#Number of laser pulses: 156
#alternating: False
#Controlled variable: [2e-08, 4e-08, 6.000000000000001e-08, 8e-08, 1e-07, 1.2e-07, 1.4e-07, 1.6e-07, 1.8e-07, 2e-07, 2.1999999999999998e-07, 2.4000000000000003e-07, 2.6000000000000005e-07, 2.8e-07, 3.0000000000000004e-07, 3.2e-07, 3.4000000000000003e-07, 3.6000000000000005e-07, 3.8e-07, 4.0000000000000003e-07, 4.2e-07, 4.4e-07, 4.6000000000000004e-07, 4.8e-07, 5.000000000000001e-07, 5.2e-07, 5.4e-07, 5.6e-07, 5.800000000000001e-07, 6.000000000000001e-07, 6.2e-07, 6.4e-07, 6.6e-07, 6.800000000000001e-07, 7.000000000000001e-07, 7.2e-07, 7.4e-07, 7.6e-07, 7.8e-07]
#
#Data:
#=====
#Signal(counts)
4
8
6
4
5
2
6
5
4
6
8
1
6
4
5
2
6
54
33
38
33
35
34
22
20
26
27
31
24
18
24
22
17
21
15
14
24
12
7
22
18
11
17
16
14
18
16
16
12
18
15
13
13
7
13
9
15
13
13
11
10
14
13
13
7
7
3
5
11
8
12
6
9
7
13
9
14
7
9
9
10
9
11
12
6
13
10
13
10
12
16
12
5
6
12
7
10
8
9
13
11
12
12
1
11
9
9
13
15
9
17
9
6
14
8
12
9
12
7
10
9
7
3
7
7
11
9
7
7
8
12
15
5
8
8
11
16
67
51
61
39
53
46
45
34
25
40
43
31
31
33
30
31
35
34
36
31
37
24
19
28
25
17
19
18
39
22
22
23
12
18
31
31
26
23
26
29
33
8
10
21
18
21
15
19
21
17
15
13
19
21
12
17
12
16
14
13
18
11
12
15
16
11
12
18
9
15
14
20
11
11
14
12
9
18
17
10
16
12
9
17
15
8
7
14
13
8
19
13
17
16
10
14
13
21
10
16
15
9
7
14
11
12
16
8
15
19
20
13
13
9
14
13
15
16
19
7
9
8
2
9
10
16
18
16
10
8
15
12
10
11
14
10
13
12
11
23
15
18
11
19
13
10
9
18
10
13
13
13
10
16
15
7
16
9
12
9
13
10
13
11
16
16
17
8
13
17
14
11
14
14
12
19
10
10
12
7
14
16
13
9
10
14
4
10
6
13
11
9
13
11
16
15
17
12
11
15
11
14
11
13
11
10
12
11
13
15
11
10
13
19
16
14
16
11
8
18
20
11
9
13
10
10
11
10
10
17
13
17
13
17
10
14
11
15
15
7
15
12
16
18
89
55
60
71
61
52
48
59
44
25
37
35
43
35
45
19
24
43
26
21
24
23
24
27
22
21
13
12
16
13
16
16
23
14
12
11
16
17
9
7
15
17
15
17
13
11
12
9
12
12
8
13
14
10
10
6
11
8
11
9
7
10
12
12
15
7
4
12
8
19
13
12
15
10
8
4
5
9
11
17
9
8
12
11
6
15
11
13
9
9
14
10
8
5
10
10
13
14
13
8
13
12
10
7
11
13
14
7
7
14
9
12
11
12
7
15
8
7
6
16
55
58
49
52
39
40
40
45
42
34
44
27
38
31
32
22
30
25
29
29
20
20
18
28
20
25
29
26
28
32
21
22
23
23
20
26
16
17
14
15
15
10
20
15
12
17
16
16
19
20
19
16
18
11
22
11
18
10
15
14
16
17
14
8
8
23
18
22
13
12
13
14
18
8
13
16
14
9
7
12
15
6
11
13
14
15
11
9
11
14
10
13
18
22
13
10
16
17
13
10
12
10
15
13
12
15
11
14
18
10
19
10
8
10
14
10
11
17
11
10
5
4
4
7
9
7
9
8
16
15
17
14
18
12
14
13
15
14
13
12
12
24
10
23
11
9
14
18
9
16
15
11
13
25
8
17
17
12
11
13
10
10
11
9
12
15
9
10
13
10
16
12
11
11
12
16
11
8
12
11
15
6
14
12
12
15
13
12
12
10
14
10
11
20
13
14
15
9
11
13
7
13
16
18
15
19
11
11
14
16
11
12
8
8
7
14
13
9
9
9
14
16
7
10
11
10
13
11
6
18
13
16
12
16
13
13
18
14
12
6
13
10
10
6
15
19
10
25
82
61
62
61
56
61
55
44
49
46
39
33
36
24
31
35
32
23
25
27
24
24
17
13
23
30
23
20
13
21
13
20
15
20
20
14
14
11
15
17
10
11
15
13
12
14
9
19
17
8
7
4
7
13
9
9
13
5
16
7
7
11
10
13
15
12
12
7
12
5
9
9
13
10
5
6
6
11
9
9
11
9
13
9
4
9
7
6
11
13
11
6
9
7
9
8
17
8
6
11
9
11
12
12
10
6
10
10
6
9
12
10
13
6
2
6
7
10
10
15
80
46
54
41
41
42
43
54
38
41
29
27
35
33
36
20
35
31
23
34
28
22
34
29
22
24
17
26
19
26
20
25
22
23
14
21
23
21
21
18
21
16
21
12
14
19
15
15
21
12
16
13
19
16
16
9
15
13
16
13
16
12
12
11
17
10
13
16
16
20
16
11
9
9
15
13
13
15
10
18
15
12
15
18
18
8
11
21
10
8
12
14
12
10
14
22
15
11
13
12
10
13
11
13
17
14
9
18
10
10
16
7
8
12
4
12
16
13
13
11
4
3
1
1
7
2
1
5
4
7
6
7
15
25
13
17
13
16
18
9
13
17
16
15
16
13
13
14
14
8
10
13
17
14
8
9
15
13
17
14
10
16
15
16
14
14
9
22
10
9
11
13
12
9
14
12
11
10
8
13
11
13
14
12
16
16
17
13
13
12
11
7
8
16
19
10
9
16
12
16
2
16
13
10
11
9
8
16
17
9
10
11
8
10
11
9
12
7
9
9
15
12
14
11
5
11
19
14
12
21
19
13
11
12
14
11
19
12
17
8
7
15
14
9
12
10
15
17
13
8
14
26
96
67
59
80
61
46
50
51
43
44
38
36
41
32
30
35
30
29
23
30
21
23
29
17
18
23
18
24
15
9
20
14
12
15
16
8
11
13
11
11
14
15
14
6
15
7
14
16
17
14
10
7
12
9
17
10
6
9
8
16
14
8
13
9
9
10
10
9
6
10
8
9
10
6
16
10
10
10
4
6
8
5
17
6
6
6
8
4
1
11
10
8
12
12
6
7
5
10
5
9
13
11
6
14
12
6
9
12
12
7
12
12
16
13
10
3
7
11
8
13
55
65
48
49
50
44
48
46
40
41
41
39
46
39
29
29
28
22
24
29
21
29
21
26
28
20
27
19
25
18
26
18
21
20
10
19
21
21
23
14
14
13
15
19
13
13
13
10
15
13
12
16
18
25
15
16
15
12
17
11
23
13
17
8
16
7
14
18
11
19
13
11
14
12
14
15
13
14
15
15
17
17
11
16
18
15
15
18
14
11
11
10
16
19
13
11
10
11
16
13
11
11
10
6
14
7
16
14
9
12
16
15
7
10
23
17
6
11
12
8
4
3
7
5
3
6
8
5
3
4
3
1
2
7
4
9
25
16
23
18
13
22
19
17
22
17
17
16
14
14
13
16
15
24
21
11
12
14
9
15
5
15
10
8
14
10
18
17
16
9
15
11
11
12
15
13
8
23
17
14
14
19
12
19
10
15
18
15
8
7
14
17
9
8
11
17
9
7
12
19
12
6
15
11
8
18
11
14
16
10
8
7
14
13
13
16
21
13
26
19
10
11
11
13
13
11
11
14
16
10
16
12
20
10
14
20
15
16
15
13
12
13
11
14
7
10
6
7
9
11
7
19
9
9
15
14
99
71
73
61
66
45
52
51
43
57
42
51
49
46
38
34
24
30
28
25
28
23
30
22
28
13
34
29
10
16
15
9
19
13
19
19
12
12
8
10
12
16
15
14
9
8
12
8
9
16
10
6
8
14
15
13
13
12
10
9
6
9
5
5
4
14
4
7
6
9
9
16
8
10
8
8
9
6
5
6
9
18
7
12
5
7
9
6
11
6
14
9
7
10
9
19
11
10
12
14
9
4
6
7
6
6
12
8
9
7
6
11
13
10
12
9
10
8
13
10
64
61
58
48
37
46
33
46
45
44
45
30
33
34
32
27
44
29
31
32
24
36
38
27
29
28
16
28
12
20
20
20
29
21
17
24
23
20
16
15
21
8
19
15
19
11
14
26
23
9
17
12
17
14
14
11
13
13
9
24
16
15
17
16
16
12
11
17
10
13
18
16
10
17
13
11
7
9
14
16
15
14
11
11
10
17
12
13
11
7
13
13
20
19
10
23
10
11
14
23
20
9
18
15
20
18
9
14
11
12
11
12
21
15
13
15
8
9
21
21
8
7
5
7
6
6
8
6
4
6
3
4
4
7
6
3
6
4
10
8
21
19
11
20
10
15
13
11
20
11
12
19
16
25
17
18
16
14
9
15
27
12
12
12
15
14
19
20
14
11
12
11
14
11
15
10
10
11
9
11
10
16
13
9
14
12
13
20
10
11
12
13
11
11
8
14
12
11
14
9
13
9
18
18
8
14
17
14
17
9
9
13
14
10
16
8
11
17
14
12
23
11
17
14
20
13
13
10
11
12
19
13
14
14
16
11
6
12
14
11
20
14
11
14
13
15
14
20
13
8
13
10
13
8
13
7
12
13
12
24
111
71
74
78
64
52
51
45
49
35
29
26
40
30
36
36
35
28
27
32
29
28
30
23
18
19
13
15
14
13
21
14
18
20
14
15
16
9
13
14
6
13
15
11
14
7
13
6
13
11
15
16
9
14
12
10
13
11
10
12
15
9
13
11
5
10
11
14
6
8
14
9
9
3
15
7
12
7
9
6
10
17
9
7
7
9
8
13
7
2
8
8
7
8
6
6
15
11
16
6
12
9
6
8
6
4
11
7
7
10
11
16
9
7
8
11
6
13
11
19
67
61
65
46
55
50
41
42
39
47
36
40
37
34
28
31
29
29
23
31
30
14
22
24
21
14
19
30
24
23
14
28
20
23
23
26
22
18
16
14
16
17
22
18
24
33
18
11
18
25
14
13
11
10
13
15
13
19
19
16
10
16
15
13
13
15
20
19
17
17
10
14
11
12
10
9
14
14
11
15
11
16
15
13
10
12
25
6
15
13
16
15
18
10
16
10
16
20
19
12
11
10
13
14
9
12
10
15
15
11
11
16
18
15
14
11
12
13
13
11
6
5
7
3
6
3
8
5
3
15
8
6
3
5
5
3
7
6
7
3
12
4
2
6
25
13
18
16
17
15
17
18
11
16
12
16
21
10
19
15
19
16
14
19
18
15
8
22
15
17
11
8
15
11
18
15
13
15
9
14
12
9
16
14
9
12
12
14
18
17
14
13
16
16
8
14
14
14
7
13
12
7
12
15
11
19
8
13
12
21
16
12
10
9
14
14
13
14
14
13
18
14
17
15
11
14
6
14
11
8
17
15
12
9
18
12
12
9
16
19
12
12
13
13
17
12
14
19
12
12
13
12
14
8
17
12
6
12
17
8
15
15
12
27
79
83
64
63
62
53
47
47
34
34
52
46
31
38
31
26
23
25
19
26
37
18
21
28
21
20
20
25
18
21
15
13
22
9
15
12
11
7
11
16
12
12
7
11
9
12
14
12
6
13
14
9
12
15
11
9
13
14
10
13
12
9
9
11
9
13
10
6
12
7
10
13
10
11
10
10
4
12
9
6
12
6
8
6
7
4
9
5
8
10
9
14
5
11
9
8
4
15
4
9
9
6
6
7
12
7
13
18
11
10
10
8
12
10
9
9
10
9
5
21
69
67
53
46
51
45
39
36
41
43
38
44
38
28
25
24
37
35
29
33
30
26
23
21
23
28
34
26
21
24
23
24
16
26
22
22
24
10
18
14
14
17
17
18
20
14
20
20
18
14
12
23
15
27
15
21
11
13
9
14
13
13
16
14
13
8
18
16
9
16
16
14
16
9
21
13
20
9
9
8
15
12
11
9
11
8
9
14
14
11
13
10
14
17
14
15
17
11
16
9
11
12
13
14
11
8
5
9
12
17
7
15
15
14
18
18
13
11
15
12
7
2
5
6
4
4
5
3
1
7
6
4
7
3
4
5
5
8
3
4
6
3
4
4
6
5
7
10
14
19
15
10
20
19
19
20
17
21
26
16
12
21
20
14
14
16
18
18
11
8
15
18
10
16
6
14
18
18
7
9
13
13
9
13
10
13
16
6
14
15
15
17
6
17
15
10
14
15
11
17
8
14
16
14
16
15
11
15
4
10
11
13
14
10
12
12
20
10
11
14
6
16
15
12
16
12
11
13
13
16
14
14
14
10
8
14
12
12
13
16
6
18
14
14
15
12
10
8
13
9
14
10
15
9
10
11
10
13
20
5
11
12
9
12
9
13
10
30
79
71
77
60
53
68
59
50
53
36
39
41
38
31
35
21
32
24
34
27
23
28
21
27
25
19
23
13
20
18
23
17
17
12
12
13
12
16
13
20
17
10
10
11
13
12
16
8
12
12
11
14
8
11
12
7
13
11
12
7
10
12
8
14
9
8
7
6
9
15
9
9
15
9
7
13
8
11
14
14
10
8
4
7
8
8
12
14
12
12
11
6
6
7
8
12
18
10
11
12
4
10
10
12
8
12
6
9
5
16
5
8
15
8
10
13
7
12
8
21
70
71
60
38
56
50
32
52
44
32
37
38
34
31
42
32
30
33
31
32
29
27
19
25
28
24
20
22
21
21
22
22
17
16
18
19
23
18
18
28
17
13
26
17
16
18
16
19
17
14
23
14
20
13
25
18
10
19
26
18
11
17
15
12
13
18
20
16
16
18
24
24
13
27
12
19
15
20
17
14
11
14
11
11
17
13
10
21
11
9
15
12
15
11
12
15
16
14
11
12
10
18
13
13
20
16
8
15
12
13
11
15
21
12
14
8
12
14
12
10
6
3
3
5
6
2
3
8
3
6
2
7
7
4
5
4
3
1
5
7
7
6
3
3
11
2
2
4
7
3
6
5
26
10
15
22
21
15
24
20
18
17
18
17
19
16
14
16
14
18
16
13
14
7
23
14
15
17
14
22
18
11
19
10
13
21
9
12
12
11
16
21
14
12
17
9
14
14
17
18
15
12
14
16
11
6
13
19
11
21
11
10
8
13
15
7
10
15
12
14
7
15
8
11
14
13
13
15
19
8
10
10
10
14
10
16
12
16
11
11
11
14
7
14
17
13
8
10
11
18
13
14
12
15
10
17
13
23
11
12
18
13
23
11
23
15
8
15
12
9
5
23
102
55
73
63
46
51
52
49
42
43
48
37
38
30
31
39
30
29
26
22
23
22
26
19
12
25
22
25
16
17
25
14
12
10
11
13
13
15
12
11
15
19
22
12
11
12
4
12
12
13
11
14
15
10
5
13
10
12
13
6
9
8
15
15
12
13
8
11
9
8
17
14
11
10
8
12
12
10
12
8
8
18
8
12
9
12
19
10
14
12
11
13
10
6
8
7
9
4
11
11
10
17
6
10
6
5
11
11
7
20
9
11
6
12
8
10
7
8
8
13
67
56
52
38
46
51
48
56
38
34
41
32
38
33
47
31
26
42
30
29
28
23
20
22
32
20
23
20
19
19
25
17
24
19
12
22
14
16
15
19
16
14
16
20
20
15
14
27
17
23
10
19
18
16
12
19
20
16
12
16
20
16
11
15
9
22
13
11
24
20
16
6
14
16
14
22
15
11
11
17
13
11
16
13
10
17
8
8
18
13
13
6
4
13
11
12
14
11
10
9
10
14
21
13
12
15
14
10
13
10
15
11
8
15
13
11
11
11
15
16
4
3
5
6
3
2
12
4
11
4
4
6
5
6
5
7
0
2
4
7
7
8
5
4
0
5
4
3
10
5
4
8
4
5
10
11
24
19
28
17
20
19
21
9
21
27
20
10
16
12
20
16
9
16
19
11
25
19
11
9
16
13
16
16
18
13
16
9
19
14
9
19
16
9
15
14
5
17
14
20
11
15
14
8
14
15
10
10
15
9
12
17
11
16
15
14
8
6
15
13
11
15
8
7
17
14
7
13
9
16
10
12
23
11
12
16
15
12
17
12
12
11
13
17
10
18
12
13
14
8
13
12
20
12
12
18
11
14
11
12
12
12
9
19
12
16
8
15
11
13
8
18
15
9
15
33
93
76
68
59
49
60
53
52
40
37
51
26
33
23
24
25
29
36
19
40
28
27
26
25
16
24
16
15
16
19
17
19
17
14
22
11
14
20
10
7
12
12
4
13
14
12
6
10
8
15
18
6
11
9
13
8
10
9
8
17
12
10
10
12
9
7
16
11
11
5
14
9
8
11
12
9
12
9
7
11
9
11
10
3
9
11
13
11
5
12
10
7
10
8
12
12
13
11
12
8
12
8
7
8
8
4
5
5
11
7
10
12
7
9
5
11
11
11
6
14
57
45
44
38
45
38
52
45
36
40
58
30
34
45
19
37
42
40
34
20
34
30
30
31
28
15
21
20
19
13
24
24
17
30
26
25
22
24
16
21
20
14
25
25
16
20
18
20
21
22
14
14
17
16
9
17
17
18
16
10
14
17
11
20
10
18
14
14
16
11
12
22
22
14
11
13
18
13
15
16
8
14
18
11
17
9
17
11
13
5
13
14
8
16
17
6
12
13
13
10
14
13
13
19
9
16
19
12
10
13
14
13
16
14
5
16
16
14
9
9
1
1
4
4
7
6
5
2
7
3
5
0
9
2
3
9
8
5
4
4
6
6
3
5
2
3
7
5
3
4
5
9
5
3
3
2
6
5
6
6
24
16
21
21
15
15
19
18
27
13
9
20
15
19
10
20
18
10
7
12
16
12
15
17
17
15
13
12
13
17
12
12
16
14
12
14
12
19
12
17
12
16
15
13
14
11
10
13
17
11
12
14
7
14
16
17
12
15
14
16
13
15
16
13
10
9
16
12
20
14
12
13
16
18
16
9
17
8
16
14
14
11
10
11
20
9
9
6
14
18
12
10
16
11
15
9
6
20
18
10
8
15
8
16
12
8
10
17
5
13
13
12
9
19
24
11
10
22
8
11
87
63
87
49
64
55
60
54
46
45
55
58
43
40
30
45
30
31
35
21
23
16
16
15
17
17
19
12
18
20
17
14
15
13
18
11
18
19
9
12
10
9
8
13
7
13
15
7
9
9
9
12
17
12
6
12
14
10
12
7
13
16
9
5
7
12
9
7
10
10
7
9
12
10
6
3
6
7
14
12
8
9
9
6
9
8
9
10
12
8
10
10
8
9
4
4
14
8
5
5
8
7
9
10
7
7
10
14
7
12
4
11
9
7
12
10
10
11
5
23
62
40
47
49
62
48
38
49
33
39
34
39
37
41
25
29
32
39
32
33
31
31
29
22
24
20
13
23
20
25
24
26
21
22
22
20
15
23
21
22
15
20
22
14
9
15
20
12
13
14
14
21
21
15
19
15
21
13
25
12
16
11
11
12
7
10
7
18
15
20
13
22
12
14
19
8
7
20
17
15
10
11
15
17
17
15
8
13
14
13
9
14
8
15
17
16
9
8
16
14
9
13
14
18
18
10
14
11
17
15
13
11
12
14
15
12
16
11
14
11
8
6
3
7
3
3
4
4
5
10
2
1
5
3
4
5
4
6
5
6
4
3
2
5
6
11
5
8
6
7
4
4
8
8
2
4
2
2
3
6
4
5
3
4
37
31
18
20
15
25
19
17
19
17
17
15
17
17
21
21
26
17
11
20
18
12
18
15
8
14
16
20
13
14
24
11
14
16
17
11
9
14
10
6
16
16
18
28
16
15
13
17
14
8
9
15
10
7
17
15
10
8
11
10
17
15
11
13
15
7
11
6
15
19
10
13
9
14
12
8
11
15
9
14
12
12
12
10
12
13
14
12
24
14
12
11
11
18
15
8
11
13
15
14
9
13
10
18
7
7
13
18
9
12
13
12
6
13
14
12
13
4
12
23
74
74
59
51
72
49
45
38
55
36
49
34
39
31
37
43
34
29
26
28
25
33
25
19
22
16
18
17
16
17
19
12
17
13
18
15
16
11
14
18
13
13
13
11
11
13
9
7
11
10
10
11
9
11
14
16
9
11
10
12
7
12
12
11
13
11
15
14
11
8
5
13
11
9
9
6
6
10
11
8
5
8
10
11
13
9
8
12
10
11
10
6
9
6
14
9
11
8
14
8
9
8
7
9
9
10
6
5
7
4
11
7
5
15
3
11
12
10
8
18
77
52
46
55
57
58
40
27
45
41
44
41
35
46
39
42
30
33
29
29
21
26
33
21
22
28
24
25
23
22
23
24
23
20
17
18
23
13
22
19
19
25
17
15
21
14
16
22
16
14
18
24
26
16
24
18
13
15
11
14
13
14
20
18
16
12
10
22
19
19
13
8
12
17
11
9
16
18
14
18
16
13
22
10
14
14
8
9
13
15
9
15
17
10
17
10
17
14
14
16
14
16
11
14
19
15
7
10
16
9
15
13
12
16
15
15
13
14
15
12
4
7
5
5
5
6
6
5
5
7
7
6
2
2
6
4
6
0
3
4
6
1
3
3
5
5
4
6
4
0
5
5
4
2
4
2
6
2
4
6
12
5
12
6
5
6
2
6
29
21
17
30
19
19
18
25
21
19
19
17
17
15
20
21
16
19
16
15
18
16
16
14
17
8
13
16
11
23
14
11
11
14
9
10
14
17
13
9
13
9
12
9
17
14
11
15
20
10
10
16
8
19
13
19
13
17
16
17
14
14
11
10
14
11
8
6
14
12
23
14
14
14
9
13
10
13
11
16
20
13
8
10
10
18
11
8
17
10
14
10
9
5
18
10
15
13
8
8
16
11
14
18
10
15
16
12
15
12
8
10
10
14
13
18
11
11
14
21
91
64
66
55
53
55
49
45
42
58
48
52
38
26
24
23
28
21
35
34
20
24
22
27
23
21
22
19
16
20
13
16
21
17
26
10
10
12
9
15
10
11
6
17
18
14
7
12
13
12
11
14
14
9
11
7
9
8
2
9
10
9
10
12
10
12
6
9
16
6
9
13
7
11
5
7
11
8
11
7
6
12
5
7
8
10
11
9
7
12
14
15
12
10
11
5
9
11
6
6
5
13
10
12
9
17
4
5
9
5
6
7
10
8
11
6
10
6
5
14
67
50
58
60
31
32
48
38
42
35
45
40
36
44
34
28
26
27
22
30
27
25
29
30
20
25
22
29
32
19
18
21
26
20
22
21
18
23
23
13
23
28
17
10
13
19
15
24
17
21
17
16
8
14
12
21
14
14
14
24
15
12
11
16
7
9
16
8
19
15
11
11
11
16
17
21
13
20
19
5
14
12
17
12
12
15
11
10
8
10
10
17
20
9
10
16
16
11
11
10
9
14
9
10
11
12
14
11
12
12
13
18
7
8
12
15
12
17
13
11
3
2
3
3
7
9
4
6
3
5
9
4
2
3
6
4
3
5
4
8
7
4
6
6
8
4
2
5
5
8
6
7
4
4
2
2
4
1
6
4
5
4
4
5
4
5
5
5
5
3
4
12
28
22
9
24
17
15
24
22
12
18
16
18
19
12
15
20
17
16
15
15
23
19
7
15
22
14
16
14
13
16
19
15
12
18
12
18
14
13
16
21
15
10
8
10
11
14
17
20
14
12
15
9
15
12
16
13
18
20
16
7
12
14
5
13
14
12
16
10
12
16
10
13
20
12
19
13
14
13
10
9
15
10
8
17
10
11
8
17
18
25
12
14
10
15
9
10
6
7
11
12
10
11
13
14
14
9
16
11
17
13
12
20
14
12
17
15
15
14
17
24
85
66
65
69
64
46
60
52
39
43
43
40
39
37
41
34
32
29
25
18
23
20
29
16
19
12
22
17
21
22
21
15
11
18
16
17
14
23
10
10
9
20
7
9
11
12
12
14
9
11
8
12
10
5
6
10
13
6
8
14
12
14
8
3
10
10
9
6
10
11
10
14
14
11
10
18
10
8
4
7
9
15
6
9
6
6
10
12
13
12
10
3
17
9
15
9
6
6
9
11
11
8
6
8
10
11
5
13
7
8
6
7
4
5
11
11
3
6
10
22
59
40
41
51
45
49
36
28
42
29
28
50
24
30
36
33
24
38
33
25
26
27
21
21
24
20
21
29
21
20
21
24
26
24
21
18
20
22
27
13
22
18
19
19
12
18
9
13
12
17
18
17
18
14
16
14
14
18
14
20
19
18
15
18
11
14
14
14
15
18
14
18
18
12
19
10
19
8
15
18
15
12
13
12
16
16
16
11
12
11
8
22
12
14
12
13
13
15
12
16
17
12
12
10
12
15
4
15
19
13
10
16
15
15
12
15
24
14
10
14
5
6
3
7
6
6
2
4
4
6
3
4
3
7
5
1
9
4
4
3
9
4
2
4
4
4
6
8
4
9
7
3
3
4
2
3
6
5
10
1
4
6
5
7
2
3
4
3
4
5
3
9
6
7
4
8
28
25
24
20
24
23
24
16
27
31
21
12
26
21
19
19
15
18
23
9
13
13
21
13
18
13
15
16
14
20
17
28
14
14
24
7
12
16
23
11
13
17
12
8
18
6
8
17
15
14
14
18
9
17
13
15
14
18
14
6
8
11
24
14
13
9
7
15
16
16
9
8
9
10
11
9
14
12
9
12
11
14
12
14
18
16
12
11
13
8
11
20
16
8
14
9
23
10
17
7
18
13
10
8
11
11
16
7
9
9
16
16
11
5
17
9
14
8
13
22
91
77
61
58
58
67
36
45
41
46
33
38
44
31
37
34
38
32
39
21
28
22
26
23
14
22
16
18
27
25
11
11
18
11
21
19
16
7
9
14
14
13
20
12
7
11
15
8
13
9
10
13
12
10
12
14
15
8
17
11
21
7
10
6
9
8
9
13
13
14
10
8
11
7
13
6
14
10
9
10
6
7
13
8
15
6
14
10
6
6
6
7
8
13
14
6
13
9
14
12
8
8
9
13
10
11
11
5
16
11
12
9
12
14
7
9
12
12
14
17
64
52
38
52
48
49
38
46
28
43
34
39
24
30
39
22
41
30
31
26
35
33
29
24
20
27
24
28
22
16
24
24
17
11
22
17
24
24
17
14
16
14
22
17
18
13
18
14
18
16
15
20
15
21
14
22
19
15
16
12
12
15
19
14
19
14
15
14
13
12
7
15
13
13
11
18
22
17
12
11
14
10
12
7
12
11
10
18
10
10
14
13
16
11
12
4
16
17
15
11
15
13
19
21
18
11
16
9
13
17
12
17
14
11
14
13
17
16
9
15
10
3
7
12
5
1
6
4
3
9
4
9
6
7
4
4
5
2
8
4
8
5
3
5
4
5
6
5
6
6
3
6
2
5
3
5
5
4
5
7
5
5
4
3
7
4
7
5
3
4
5
1
7
2
2
6
6
3
7
8
31
32
19
20
22
26
16
17
21
20
21
11
14
22
22
8
12
19
19
14
16
14
22
17
13
15
14
15
10
22
21
11
13
15
7
16
10
18
16
9
13
14
20
15
16
13
14
12
9
16
17
15
14
13
13
15
18
17
9
11
11
17
18
9
12
12
12
17
14
16
16
2
16
9
15
13
10
17
7
7
15
11
9
12
12
10
10
4
9
11
13
11
20
17
9
11
8
14
14
19
14
12
9
16
7
18
18
8
14
15
13
16
10
15
18
15
14
15
7
26
93
62
53
54
46
43
49
50
42
38
42
37
28
29
42
33
21
23
28
25
15
14
27
22
18
20
38
18
20
17
16
17
17
13
8
14
11
16
15
11
12
16
10
18
15
8
15
13
7
8
14
8
14
12
9
12
8
6
14
17
5
10
16
11
8
7
10
17
9
16
10
7
8
10
8
17
8
13
13
16
12
8
12
6
7
13
7
10
12
8
12
18
9
10
7
9
8
7
10
6
10
7
9
13
5
10
8
11
17
7
5
11
16
12
5
6
15
7
14
18
61
45
55
52
46
42
33
45
43
48
26
40
31
36
39
34
30
34
31
31
27
23
30
33
25
24
25
24
12
25
26
20
22
20
22
17
26
24
18
12
16
21
19
25
18
14
15
18
20
12
15
14
29
16
20
12
19
10
20
25
13
9
17
16
15
19
12
12
15
10
18
12
15
16
10
13
17
23
12
12
15
9
19
14
15
14
11
16
14
14
11
14
9
10
13
10
13
13
19
13
11
17
21
10
10
13
7
15
17
13
6
13
19
11
10
16
10
9
14
5
5
5
4
4
6
5
3
2
3
4
8
10
4
4
2
6
3
4
4
6
5
5
4
5
7
3
2
6
7
7
3
4
3
4
9
4
6
6
6
5
3
8
11
2
4
2
5
6
6
6
7
5
5
3
8
5
8
1
4
3
5
7
4
13
25
29
19
17
13
20
23
15
17
16
17
23
19
22
21
21
16
18
14
15
23
14
20
7
16
14
15
11
19
17
7
15
12
16
15
10
9
20
22
15
15
9
23
14
22
18
20
7
13
17
11
18
24
18
17
9
13
15
10
18
13
14
12
19
8
11
18
20
11
13
10
10
14
13
14
14
15
14
13
13
18
23
16
14
10
15
9
16
15
6
11
18
18
16
9
17
13
5
8
17
14
18
13
16
14
11
16
12
16
15
9
13
11
9
10
7
6
13
10
30
85
67
61
62
51
57
56
64
47
33
37
36
43
30
36
31
28
26
19
23
19
18
20
32
22
18
21
23
20
16
14
27
12
5
13
16
13
11
12
12
7
11
17
7
13
12
11
23
7
16
13
13
8
7
7
11
9
10
12
5
5
10
7
5
12
8
14
16
13
2
9
8
11
11
18
10
12
9
6
13
7
11
7
15
5
10
7
8
13
10
8
8
6
5
14
4
7
13
11
5
10
9
13
8
8
12
7
7
9
12
9
19
12
7
11
5
10
8
9
19
68
57
54
46
53
45
33
45
40
31
33
37
38
33
29
32
39
24
40
30
30
28
31
19
24
14
31
18
20
20
23
14
23
20
15
24
27
15
22
16
15
19
13
19
13
18
16
15
14
14
13
10
19
12
16
20
20
14
19
17
11
11
11
17
11
13
19
9
11
22
14
15
21
16
12
13
14
19
12
9
13
16
11
14
19
13
15
13
12
14
14
16
12
9
21
11
12
10
17
17
18
18
9
12
10
13
13
16
15
12
7
10
8
14
11
17
9
11
17
17
5
7
2
5
4
5
1
2
5
5
5
5
6
6
1
9
4
2
3
2
3
3
6
6
3
5
7
7
4
4
4
10
6
6
9
4
2
3
3
9
7
6
6
5
7
6
5
7
7
3
2
2
4
4
5
5
8
5
4
5
7
6
2
2
3
3
4
8
28
28
20
27
24
30
15
19
16
23
23
30
21
27
23
18
13
30
17
13
15
15
15
18
15
18
11
23
17
13
13
12
16
13
16
16
14
13
19
15
14
16
15
11
9
18
14
9
16
13
17
15
7
21
6
5
14
9
11
14
16
11
11
13
10
11
18
9
12
10
14
14
13
16
15
15
17
13
15
14
13
12
13
12
14
13
5
14
9
7
15
12
19
18
13
7
12
5
12
23
8
14
12
7
16
18
10
9
11
13
12
17
8
5
9
19
11
7
16
32
86
81
64
58
48
41
43
47
48
37
43
50
32
21
33
29
28
14
30
27
23
34
23
20
26
17
19
14
12
18
14
8
15
17
12
7
17
12
11
16
15
16
12
10
10
13
13
12
12
10
6
9
9
9
9
8
10
11
17
8
8
6
8
10
9
4
5
6
11
15
16
15
13
9
11
9
14
12
9
13
12
10
12
9
8
8
8
8
11
6
9
9
13
11
11
11
11
12
8
7
11
7
10
9
10
8
9
11
11
22
5
10
10
12
8
12
7
6
6
18
61
58
47
45
49
54
45
43
41
40
43
40
31
36
41
27
24
25
41
32
29
22
30
27
26
26
20
21
28
24
30
20
19
18
10
19
26
15
16
10
20
16
21
22
15
17
19
16
14
20
18
13
18
16
13
21
12
14
18
15
16
16
10
16
13
18
16
17
15
15
8
18
20
12
11
15
15
16
15
16
18
9
15
18
8
17
9
14
13
10
14
17
13
10
15
18
11
10
11
10
16
12
13
10
11
8
13
12
12
5
16
13
17
16
11
9
11
14
11
9
5
6
7
5
2
7
5
5
5
4
4
6
4
5
3
8
2
6
5
6
6
3
2
3
5
2
5
2
2
5
4
6
5
8
11
8
5
5
8
6
5
7
2
6
1
6
4
2
5
5
3
6
2
5
9
5
2
8
2
0
5
2
4
2
9
3
9
6
7
5
5
11
33
23
22
31
15
23
21
22
21
21
25
23
22
21
16
26
17
14
14
15
13
14
19
20
12
12
21
12
19
12
12
21
12
14
19
17
13
16
18
16
18
11
14
10
15
13
15
13
14
12
13
11
13
10
12
8
18
16
15
19
11
10
12
9
9
10
10
12
14
6
10
14
10
12
6
12
9
14
10
12
14
15
13
14
14
17
14
8
19
10
16
12
8
12
14
11
13
8
8
12
10
14
8
18
18
8
14
9
11
12
13
13
13
14
10
12
13
22
16
16
87
64
63
54
47
48
43
58
44
37
40
44
36
35
37
35
23
34
27
27
19
21
21
22
19
24
20
8
16
20
16
23
17
16
21
19
14
14
13
10
14
13
13
7
10
17
11
14
13
13
11
6
8
14
9
12
3
9
11
7
13
6
10
12
6
11
13
11
7
12
9
13
11
11
11
19
7
6
7
6
10
7
6
9
7
6
14
8
11
12
9
8
8
8
10
5
12
7
10
11
12
11
7
3
6
12
10
12
11
12
5
11
13
13
13
13
13
6
7
16
56
57
39
50
38
38
45
42
38
50
36
38
33
20
29
33
25
20
28
38
26
26
20
23
29
28
25
25
12
20
18
16
14
20
21
20
15
12
20
18
23
23
13
15
25
15
12
10
21
25
15
15
10
10
12
11
11
19
17
14
18
11
12
20
11
13
17
13
18
12
25
11
12
13
13
11
12
15
15
9
12
17
13
20
15
18
15
19
16
11
11
12
11
5
6
14
9
8
17
19
14
12
12
10
9
11
17
14
9
9
14
14
15
14
10
13
11
8
9
15
6
4
4
3
5
4
3
2
7
3
7
5
8
7
0
5
6
6
1
4
5
0
2
8
8
4
7
3
7
6
10
5
5
2
4
5
3
2
4
1
4
5
8
1
6
3
7
7
5
3
5
4
4
5
3
5
4
4
3
4
3
3
2
3
6
3
5
2
9
5
4
7
4
8
4
15
31
21
22
21
27
30
20
21
28
17
14
12
11
15
17
26
21
21
24
18
22
25
15
13
16
22
18
14
18
18
13
16
15
9
15
15
19
22
13
18
7
13
13
11
13
14
12
12
6
19
13
8
18
17
15
13
9
18
16
11
11
10
6
12
9
12
11
13
17
12
9
9
10
18
11
6
17
10
9
11
11
14
7
10
18
12
9
8
16
8
11
15
12
8
10
18
8
17
13
8
14
11
12
11
13
11
11
7
9
12
15
12
14
14
18
7
16
6
18
11
103
77
70
53
51
55
41
45
33
30
42
43
37
35
31
30
32
31
23
26
32
20
24
21
29
13
16
28
19
25
13
21
15
9
17
13
12
11
13
13
11
8
22
9
15
10
9
10
13
15
10
6
13
14
8
9
19
9
9
7
8
11
10
13
15
10
15
6
9
9
13
11
10
11
11
8
13
6
15
7
11
13
9
10
5
5
11
9
11
9
8
10
11
9
6
9
8
13
7
11
9
9
6
9
7
12
8
7
8
4
12
9
6
10
14
9
13
11
16
22
78
44
46
42
39
40
48
39
35
40
44
36
41
33
42
33
25
27
25
22
26
31
19
27
38
27
20
27
22
28
22
33
20
19
24
20
21
23
24
23
15
15
27
15
19
18
23
19
17
17
22
19
12
24
18
9
17
19
13
12
20
21
15
11
9
23
20
22
16
12
13
16
16
11
19
19
9
17
18
10
16
14
15
16
18
12
10
10
10
15
11
13
17
9
17
15
7
13
9
9
15
11
10
17
10
14
14
9
11
7
10
18
16
11
16
14
15
12
8
16
6
9
3
5
5
6
6
4
2
4
6
6
2
5
3
3
4
5
2
2
6
8
3
2
1
5
9
4
7
3
8
3
5
5
8
8
8
3
6
3
9
5
3
9
5
8
3
4
6
7
4
4
4
4
9
3
2
6
7
4
2
5
5
6
3
2
6
5
3
7
5
6
4
2
1
8
4
3
10
10
34
28
19
28
24
30
19
27
18
27
17
20
23
15
20
25
13
18
18
24
30
20
19
15
19
15
16
15
10
10
16
17
16
24
15
14
14
13
21
14
13
8
8
18
9
17
12
8
11
14
14
10
20
20
16
15
14
6
18
6
19
9
13
22
13
16
16
8
16
22
15
14
19
10
17
19
20
12
9
9
10
18
15
17
15
9
9
11
14
15
6
6
16
12
13
17
13
15
18
12
11
5
16
12
12
13
16
20
14
14
16
8
7
12
12
11
13
12
15
23
78
80
67
71
56
45
47
53
36
50
43
43
42
39
27
39
23
36
26
29
17
21
24
21
24
17
19
19
16
20
11
10
19
23
14
12
12
11
15
11
19
11
9
9
15
12
9
10
11
3
16
8
12
6
11
17
13
10
7
6
8
6
8
10
10
9
9
10
9
9
7
10
5
13
8
9
9
12
11
9
4
5
9
6
4
7
11
10
13
13
12
11
5
7
10
8
3
17
8
10
12
9
9
9
13
9
16
9
4
6
4
8
15
9
12
6
12
12
6
19
63
54
49
41
44
32
58
49
47
43
31
41
41
36
37
35
30
24
27
34
38
29
36
23
22
28
29
24
26
27
13
22
13
28
23
13
16
22
21
23
21
10
19
16
21
16
16
24
22
7
14
15
14
13
16
18
17
13
10
11
18
17
13
11
16
9
18
12
15
18
13
8
13
18
9
9
11
13
12
11
25
13
12
22
11
11
15
11
24
13
12
11
13
15
8
11
12
17
16
15
16
16
16
11
6
13
16
20
10
8
14
13
15
19
13
7
15
14
8
12
4
2
5
7
6
2
5
5
7
1
2
7
2
5
7
2
8
2
5
5
5
6
3
3
2
4
4
5
3
5
5
3
5
4
5
6
4
4
5
7
7
3
1
4
7
6
7
5
3
5
7
6
5
8
5
9
6
7
3
5
7
5
4
7
3
2
7
3
6
3
5
2
6
8
3
9
3
1
5
3
4
8
2
3
35
19
27
27
16
19
23
18
25
19
20
20
18
16
17
13
21
29
21
20
14
21
21
15
23
15
25
16
19
13
17
16
17
11
15
7
11
20
12
19
12
8
6
18
15
12
19
19
14
18
9
19
25
10
15
11
11
8
10
11
20
17
16
15
11
20
18
18
16
13
9
15
12
13
10
13
11
17
7
11
9
23
12
16
16
16
6
12
8
14
16
15
9
19
12
11
19
13
9
9
9
13
13
5
16
18
11
13
12
7
19
11
14
13
7
10
17
13
11
34
77
60
75
53
50
42
39
45
47
46
41
31
28
33
39
30
29
30
21
25
24
33
19
31
20
21
19
17
23
12
13
16
12
10
20
21
21
16
12
11
12
8
13
13
11
18
16
16
12
14
15
16
7
4
11
11
10
11
13
7
7
14
13
11
13
11
7
10
10
9
14
10
13
8
7
11
7
13
12
8
5
10
4
7
7
12
7
11
7
10
7
7
14
6
15
15
5
9
7
10
9
6
7
10
7
7
7
13
11
11
11
9
10
9
12
7
8
9
13
15
70
64
74
50
45
49
41
35
34
42
34
25
36
43
30
31
28
29
40
33
30
18
34
28
13
19
31
20
29
19
21
19
23
21
26
25
23
18
16
15
21
22
14
15
16
17
16
15
16
9
10
17
16
20
12
15
11
9
14
21
17
9
13
18
15
16
15
10
14
7
10
17
21
15
20
23
16
9
11
16
14
16
16
17
14
8
14
12
13
14
13
13
9
15
16
12
16
10
7
22
12
10
12
10
12
11
15
15
8
14
10
8
13
10
13
17
14
12
15
13
7
1
4
4
8
3
4
4
1
5
5
0
5
2
2
3
3
3
8
5
3
2
2
0
3
6
3
7
0
5
6
4
3
3
5
7
4
5
0
2
4
6
3
5
4
0
6
7
8
8
4
10
5
5
3
7
7
6
6
5
6
4
7
5
12
6
5
7
2
2
4
4
6
8
4
9
3
5
9
7
3
3
3
5
4
6
4
14
28
32
29
31
30
20
33
24
22
23
17
18
13
22
13
16
16
19
21
18
17
21
18
18
17
15
14
13
10
11
9
6
16
18
22
13
13
13
16
15
7
16
10
15
14
12
17
17
10
13
14
19
13
15
16
14
12
13
18
15
14
17
16
16
10
6
9
15
11
14
19
12
7
19
15
13
10
12
11
10
17
20
14
8
17
12
10
10
7
15
12
9
17
13
3
15
12
19
21
11
13
9
9
16
10
13
21
7
12
10
11
15
9
7
12
12
10
15
10
16
85
84
63
52
64
54
65
44
53
41
36
30
42
31
26
26
29
21
20
26
30
25
24
23
23
25
23
14
9
18
23
14
11
17
21
20
11
16
14
14
16
15
12
8
11
8
12
11
13
9
12
13
11
11
8
8
13
9
5
10
11
8
9
12
10
7
10
10
10
11
10
8
8
6
8
13
7
5
11
8
9
12
18
14
6
10
7
12
14
7
18
9
16
8
11
12
7
11
7
8
13
9
8
5
10
6
12
12
4
12
7
11
17
10
12
5
7
3
13
15
67
67
46
42
45
50
42
36
32
33
37
34
22
39
27
29
27
30
21
29
30
22
31
28
20
33
15
27
22
22
33
31
24
28
19
28
13
25
14
22
25
22
14
17
19
14
13
11
18
18
14
23
13
27
16
13
18
15
19
10
13
10
7
21
14
12
16
16
15
17
12
23
14
15
15
11
11
15
12
11
17
16
17
13
16
12
16
18
12
13
14
14
18
12
10
18
9
13
10
12
11
12
10
12
10
14
17
10
12
16
9
17
8
7
10
8
13
11
13
14
11
8
7
6
7
5
6
2
3
5
4
3
7
6
3
7
8
5
8
4
3
6
5
3
3
7
5
10
6
1
5
5
2
11
6
5
5
8
9
4
5
10
2
1
3
4
2
4
4
5
6
4
7
6
10
4
6
3
3
6
3
9
4
8
6
4
5
8
5
10
6
3
4
6
4
3
6
6
9
1
4
11
4
3
5
7
8
5
7
2
4
8
28
24
30
28
26
16
17
25
21
23
32
26
21
31
17
19
18
14
12
19
20
19
14
17
19
15
21
17
19
10
20
18
12
19
15
11
8
16
9
12
10
15
17
13
11
15
9
16
11
11
13
10
11
11
17
10
9
14
11
18
18
14
7
12
13
12
15
17
11
20
19
9
16
12
12
11
9
17
12
22
12
14
5
18
11
17
15
14
9
12
16
13
17
20
11
9
8
12
9
11
16
10
14
15
11
9
11
8
13
12
11
9
14
13
10
19
12
13
4
17
71
75
76
49
39
55
52
63
42
44
49
29
26
38
41
35
29
27
22
31
29
24
19
18
18
27
19
17
24
13
16
8
21
15
12
17
19
17
11
13
17
16
12
10
11
11
8
7
13
15
15
10
11
13
12
12
8
11
5
10
12
8
11
12
9
10
12
15
13
17
12
6
14
12
7
15
16
8
5
9
8
7
7
10
8
13
12
7
5
12
10
9
9
7
6
7
14
6
6
15
10
4
12
6
14
9
7
9
9
10
7
9
9
10
9
9
7
15
8
12
49
56
57
51
44
55
48
52
44
37
51
40
43
32
33
26
24
24
22
36
36
26
34
26
24
23
31
25
21
23
19
19
26
34
20
18
22
16
21
18
16
26
24
23
18
13
16
23
17
11
9
16
20
13
15
20
22
13
15
18
16
13
15
25
8
13
14
22
18
18
19
11
11
9
11
18
20
17
11
16
21
16
15
14
12
6
11
11
16
15
20
17
21
10
12
12
12
11
16
13
11
12
11
4
10
17
17
13
7
11
9
9
15
16
13
5
10
12
13
12
8
4
4
5
6
6
3
6
7
10
5
5
5
9
5
8
5
7
3
2
2
3
9
8
5
5
1
7
2
2
1
4
5
4
6
9
1
4
5
6
4
4
5
7
2
7
2
4
3
5
5
6
8
1
5
4
5
5
3
7
3
10
3
1
4
4
5
3
3
1
8
5
3
3
6
4
5
3
5
5
4
4
5
7
6
4
9
4
4
4
4
7
4
4
5
10
32
25
27
25
23
30
26
19
13
24
29
22
18
13
18
19
15
13
25
17
19
18
9
14
27
13
21
14
15
10
19
15
23
21
18
13
19
16
16
18
14
16
17
18
16
16
11
14
14
6
12
13
9
11
10
12
16
9
16
16
15
14
18
11
8
15
16
17
11
16
9
13
10
12
10
20
13
11
12
13
20
12
18
14
12
14
10
13
9
14
13
18
12
14
5
10
13
10
14
20
16
14
14
11
5
16
14
14
8
14
13
13
21
10
12
14
5
15
15
14
80
83
57
63
62
50
49
42
44
44
37
32
34
36
30
26
25
28
22
27
18
23
13
25
20
18
22
21
16
18
14
18
17
16
12
17
15
16
20
12
15
4
21
8
18
14
10
12
10
16
10
12
10
13
9
17
5
9
5
11
12
10
6
17
5
10
9
6
11
7
6
11
16
5
8
16
10
13
13
7
9
10
12
10
14
14
6
14
4
11
11
13
14
10
13
10
14
7
6
10
10
8
17
7
12
5
7
9
9
7
4
10
7
2
9
9
7
8
9
12
57
59
57
52
51
35
50
47
42
40
32
38
40
35
30
29
43
27
27
33
27
29
27
19
27
26
36
23
27
26
27
19
24
19
15
25
15
14
24
16
13
12
15
20
9
15
21
20
10
10
15
13
14
13
12
15
13
17
12
8
13
14
32
18
20
11
9
12
13
17
11
14
14
15
20
14
11
14
14
10
19
14
15
17
17
14
24
13
12
12
15
11
11
15
14
13
15
14
12
14
10
18
9
18
13
15
22
10
11
12
12
12
16
13
7
8
9
17
15
10
3
9
5
2
8
3
2
11
5
9
5
7
7
7
2
5
5
9
4
7
3
4
1
6
4
8
8
2
7
6
2
8
1
4
4
4
4
5
5
6
5
7
2
4
2
4
4
3
5
7
6
4
6
6
3
9
5
5
2
7
4
7
6
1
6
6
6
4
6
2
4
4
6
6
10
2
4
6
5
3
3
5
3
4
3
3
2
5
4
3
4
2
4
3
7
11
5
5
5
10
30
29
21
31
23
30
16
20
27
17
16
22
18
16
14
14
16
19
21
16
16
17
14
18
20
23
17
15
10
20
13
21
22
22
15
10
19
17
16
11
13
16
13
15
12
14
13
16
13
14
12
16
9
14
22
18
13
14
15
15
14
8
12
10
16
15
12
12
6
10
17
14
13
9
14
9
14
13
15
4
7
18
10
11
14
13
16
24
11
17
17
15
13
10
10
10
17
15
19
10
8
8
12
14
8
11
15
13
12
14
14
15
10
11
10
11
17
21
13
24
83
67
66
48
52
55
60
47
46
40
49
25
44
36
34
27
29
28
33
27
25
20
20
30
24
15
16
19
14
24
17
17
11
17
14
17
12
18
9
13
12
9
12
12
13
14
5
18
11
15
7
9
5
12
8
11
12
14
11
8
9
9
11
11
7
11
5
12
7
9
9
11
9
15
6
5
11
11
13
10
10
7
12
10
9
11
11
6
11
9
7
12
12
9
8
16
10
6
10
15
7
4
11
10
12
15
7
9
12
14
4
9
16
13
11
9
10
13
15
16
62
45
52
48
58
43
44
35
26
44
32
33
32
29
35
36
25
24
26
27
32
22
29
28
31
21
32
24
30
13
23
21
18
29
16
19
17
21
17
13
20
18
26
17
16
16
25
18
17
16
16
14
18
13
18
14
15
8
14
12
9
14
12
13
13
16
12
14
11
20
16
10
14
14
8
11
13
19
14
9
18
16
14
12
12
16
11
15
9
14
13
16
18
18
19
17
10
17
13
8
12
13
9
11
7
11
23
10
10
11
14
10
9
12
14
11
10
17
16
16
3
6
4
5
6
5
7
4
5
6
4
2
3
4
6
4
4
8
4
2
2
4
4
8
3
3
7
7
3
9
9
0
4
3
2
4
4
5
4
3
4
4
3
3
3
2
2
5
3
4
3
7
2
4
5
3
4
9
1
4
6
6
7
6
5
3
2
9
3
3
6
5
5
6
5
7
5
5
3
8
5
1
5
12
4
3
5
3
1
0
4
5
2
1
5
2
6
10
10
7
7
5
8
10
40
25
26
22
32
18
21
22
17
15
23
25
20
23
20
17
21
19
14
23
19
16
9
20
18
13
22
21
14
11
19
15
21
23
13
13
16
11
21
19
17
13
16
12
15
19
13
4
7
11
9
14
22
11
14
11
12
14
11
15
15
9
8
10
8
8
16
20
9
17
16
8
13
9
15
16
15
7
12
15
16
7
10
12
13
16
16
15
9
23
11
13
8
16
17
16
7
9
9
10
13
7
17
17
14
9
6
16
11
10
18
9
12
17
7
16
19
10
13
27
74
63
73
69
62
53
55
43
44
51
47
34
32
43
27
26
21
32
19
26
18
23
23
20
19
22
26
23
18
20
18
15
19
12
18
16
13
13
10
4
13
14
13
14
11
12
10
17
15
11
10
7
10
15
12
16
6
13
16
7
10
7
10
7
8
7
10
9
11
9
10
11
10
13
6
10
2
9
7
10
12
9
6
15
17
9
9
13
9
5
8
10
6
9
11
8
9
4
7
8
6
16
9
9
8
9
8
9
7
14
8
7
14
9
6
15
4
9
6
19
71
54
51
51
39
61
57
45
38
39
48
44
29
32
29
33
41
30
25
34
34
34
21
37
23
27
17
24
26
17
31
25
23
15
22
17
22
20
27
14
23
23
25
21
27
18
13
15
17
13
20
15
16
10
12
24
19
17
13
15
14
18
16
17
12
9
23
10
12
11
16
14
21
19
10
10
12
17
17
8
18
8
23
14
11
12
12
5
11
14
11
19
9
8
10
13
12
15
11
10
10
16
17
14
16
8
12
12
12
12
10
6
12
13
12
16
22
19
11
15
5
3
5
3
4
6
5
6
7
3
7
5
3
5
4
5
5
4
3
2
2
3
10
5
5
7
3
4
5
5
5
5
1
3
4
5
6
5
5
7
5
4
5
10
7
4
2
6
5
5
6
2
3
4
4
5
4
5
5
4
5
5
5
3
1
6
2
4
6
7
7
7
5
7
6
0
0
6
4
3
3
4
7
7
4
12
6
5
5
2
4
5
6
0
6
4
3
9
5
3
5
6
3
4
7
3
2
7
27
38
24
29
29
18
22
23
20
25
21
27
15
19
21
26
21
19
24
24
19
17
19
19
17
14
21
12
12
16
15
13
18
13
10
10
13
23
9
11
20
15
14
18
21
15
18
19
13
10
8
11
13
13
13
20
15
14
10
12
13
11
15
15
13
17
12
13
12
6
16
12
13
7
15
9
17
11
17
9
17
14
12
22
25
14
12
12
17
16
13
12
11
14
11
16
4
8
17
9
16
14
8
14
18
18
11
7
10
15
14
17
10
15
15
5
12
14
11
23
89
74
73
58
59
51
51
58
43
39
40
51
33
21
29
33
35
31
23
27
27
22
24
23
18
20
17
7
21
23
13
13
16
13
11
12
21
11
14
8
11
6
12
14
8
14
9
12
15
10
8
6
13
12
12
12
9
15
15
10
8
8
11
7
5
7
9
7
10
11
9
7
8
8
10
7
9
8
14
13
1
11
11
6
8
7
13
5
10
13
13
12
10
6
10
10
12
6
9
11
11
8
8
8
7
5
10
12
14
8
6
14
11
7
11
11
9
14
2
21
64
52
53
48
46
37
39
41
48
37
45
48
47
28
20
26
33
38
31
30
30
42
27
25
33
20
36
30
24
31
21
27
25
17
20
21
27
22
23
20
25
19
19
12
10
13
17
14
16
16
17
22
19
15
16
18
16
13
20
3
24
18
13
14
7
15
15
16
14
16
20
14
14
14
16
23
17
16
15
17
15
19
9
19
9
13
14
15
17
11
16
13
13
10
14
12
9
14
11
10
11
12
15
9
8
8
10
13
9
14
16
10
13
12
9
18
12
14
19
13
11
6
7
5
3
4
2
8
10
4
4
8
5
5
5
5
4
4
6
4
2
5
8
5
6
6
4
8
4
7
6
4
8
5
2
3
15
10
5
5
6
6
9
7
7
8
3
1
3
10
4
4
5
6
4
6
6
5
4
4
8
4
4
5
7
4
6
5
5
2
1
5
3
9
5
7
4
4
2
6
4
1
2
5
6
6
5
4
7
8
5
3
5
3
8
6
1
10
3
6
4
1
7
10
1
3
5
3
8
4
6
6
38
42
25
25
17
17
18
26
33
20
21
24
28
14
23
17
13
18
9
13
15
22
19
18
19
10
16
14
18
23
17
12
12
20
10
12
15
18
18
15
15
15
15
18
19
8
13
12
10
15
14
15
12
18
10
7
24
13
10
14
18
14
9
13
8
12
13
9
11
10
19
14
10
14
11
15
15
13
8
9
12
10
18
16
16
16
15
15
10
16
16
14
9
7
12
9
17
10
6
15
13
10
17
7
10
11
12
9
7
16
14
14
13
13
19
9
7
14
10
20
67
56
75
48
63
57
52
49
31
43
40
32
30
41
29
41
29
26
24
24
25
30
24
22
21
14
27
24
13
12
14
13
13
13
21
16
7
12
13
16
19
12
10
8
10
9
10
9
19
12
13
13
6
13
11
7
13
17
8
8
9
10
11
9
9
8
14
10
12
8
6
20
11
8
8
13
11
16
6
9
19
6
11
12
11
11
11
6
8
9
8
8
13
9
15
14
8
9
10
9
11
9
10
13
16
12
8
9
8
12
7
12
7
16
4
9
11
14
10
13
66
64
54
48
46
47
52
38
38
35
35
31
32
27
37
38
37
35
31
34
25
41
33
26
24
24
31
30
20
25
18
22
18
18
17
23
24
23
11
21
23
16
23
18
13
8
15
16
16
13
14
14
13
20
19
15
12
10
11
11
17
16
17
13
12
11
14
20
15
12
13
12
12
15
13
10
14
10
20
14
17
15
13
12
9
12
13
14
15
12
11
16
10
8
13
14
17
10
13
9
9
12
21
8
17
14
10
6
21
15
10
12
16
12
12
13
8
17
13
9
9
5
4
3
4
6
5
7
2
10
11
2
2
3
5
1
8
2
4
6
3
6
10
6
5
4
5
4
2
5
2
8
5
10
11
6
6
9
5
11
4
3
4
4
4
4
9
6
1
2
5
2
8
4
5
1
6
6
2
4
4
2
5
4
5
5
8
7
4
4
8
7
6
4
5
2
3
8
6
7
4
1
6
6
5
3
3
5
3
2
4
7
4
6
3
6
7
3
3
5
3
6
8
4
5
7
3
7
6
11
6
2
7
3
4
8
21
33
25
29
27
30
18
33
22
20
20
21
27
21
25
20
16
21
17
17
15
15
16
17
17
15
13
14
11
18
15
17
13
11
17
18
18
12
16
17
12
15
16
13
11
18
7
10
14
12
16
22
15
14
12
14
14
12
18
13
11
11
14
7
10
18
14
16
6
7
15
9
19
6
14
9
10
13
11
15
8
7
13
13
15
9
12
8
13
21
17
14
16
15
24
6
14
14
14
10
8
15
12
15
13
10
9
17
13
15
14
15
6
12
15
20
21
13
12
25
73
87
61
58
67
58
42
47
46
54
38
38
34
31
22
24
31
39
37
21
18
21
21
17
11
27
21
24
27
19
10
13
14
19
18
16
11
15
14
9
14
9
13
12
13
14
9
13
11
9
12
7
8
9
12
9
7
9
17
10
15
8
6
14
10
8
11
8
6
10
10
7
7
14
10
5
9
13
10
7
8
9
6
10
11
5
9
7
15
5
7
7
12
9
13
6
9
9
12
7
6
8
4
9
10
11
14
4
15
13
9
6
12
16
9
8
7
4
8
21
73
51
53
54
51
47
36
52
49
46
48
36
31
40
28
29
32
27
32
36
25
20
32
15
27
21
25
32
24
26
19
22
25
26
20
17
16
15
15
21
23
9
13
16
21
25
15
19
18
14
23
14
20
16
9
17
14
12
15
21
15
13
11
16
11
11
14
19
15
13
12
13
16
18
14
14
18
20
10
11
20
15
13
18
19
6
12
13
14
16
15
19
14
9
13
13
8
13
12
10
20
20
11
16
13
11
14
10
15
10
15
13
11
22
13
16
9
18
12
11
5
4
6
5
3
3
5
3
6
8
4
3
8
7
3
5
5
7
4
9
6
4
8
5
4
4
9
5
4
6
6
4
5
4
6
1
7
5
11
7
5
7
2
4
6
4
0
5
1
7
4
2
3
6
10
3
5
8
5
3
5
5
5
5
6
7
4
3
5
5
3
3
4
3
4
5
1
6
8
7
3
7
4
6
7
4
5
5
5
4
4
5
8
8
5
5
3
2
4
3
2
4
8
2
4
6
6
4
5
5
4
5
7
12
9
3
8
6
3
14
30
35
16
19
20
17
18
31
18
17
18
20
18
23
24
16
18
16
17
15
23
18
13
14
14
11
13
20
16
21
17
14
25
14
17
14
22
19
12
15
18
9
12
12
19
16
19
13
19
15
11
13
14
13
16
16
12
5
11
9
18
18
16
14
8
15
11
14
12
16
21
14
10
12
14
12
11
16
20
15
12
15
12
13
10
10
14
12
18
10
19
11
12
18
9
11
11
7
14
6
9
8
10
15
14
12
8
12
12
8
12
21
12
10
14
12
16
15
16
17
72
67
72
72
60
58
51
34
38
32
41
26
48
33
33
43
31
35
25
22
23
31
31
38
29
23
10
23
25
21
16
16
15
14
10
12
10
11
14
12
16
9
8
6
13
10
9
7
13
15
13
7
13
9
10
10
8
14
13
10
10
9
9
14
9
9
9
12
5
6
8
11
9
12
12
13
9
11
16
9
4
13
8
6
9
7
4
8
9
11
11
13
11
11
6
5
10
10
9
11
10
13
9
15
5
5
7
6
7
7
12
9
13
6
7
8
13
7
8
21
76
65
46
39
54
37
46
39
40
43
32
41
27
29
38
31
34
38
32
19
21
20
20
28
20
30
18
35
22
27
30
27
24
28
21
16
24
18
17
21
20
17
19
17
14
24
17
17
21
12
18
16
11
22
13
16
14
10
22
13
9
20
14
18
7
15
16
14
22
19
18
6
13
15
16
10
10
17
11
11
11
19
15
17
22
19
10
15
15
8
12
16
16
13
13
13
8
14
12
11
14
7
11
10
6
13
5
6
19
12
10
11
20
9
10
14
14
15
4
12
12
6
1
6
1
10
5
2
4
8
6
10
7
1
5
1
3
3
6
6
3
7
5
6
5
6
4
9
6
5
7
5
6
3
8
8
3
2
5
8
9
5
6
2
3
3
5
7
4
7
7
7
3
5
2
7
3
5
5
7
3
6
3
5
5
4
4
6
4
3
5
10
3
2
2
9
8
5
7
4
6
3
5
3
3
7
5
5
7
5
2
2
3
4
4
7
4
4
3
4
5
5
5
6
6
3
4
2
10
6
1
4
7
8
3
3
5
3
3
6
4
5
5
10
32
21
34
21
30
29
22
21
25
25
24
12
28
20
24
21
25
20
15
27
20
22
12
11
19
16
21
20
11
13
13
15
13
11
16
15
18
19
16
10
14
21
17
16
19
15
16
6
12
18
12
17
8
13
20
20
14
16
11
9
15
7
10
10
15
13
12
8
14
13
15
22
14
24
17
12
16
10
17
21
8
15
13
16
12
13
15
14
16
21
14
6
17
17
13
15
10
14
13
6
17
11
20
17
11
11
12
6
6
15
12
12
9
15
9
16
9
16
13
21
87
76
71
51
51
39
60
45
51
38
36
32
32
50
37
30
30
18
23
28
25
31
22
24
21
19
19
18
18
25
10
12
22
23
11
17
9
18
11
18
12
14
16
12
17
13
8
12
17
9
8
13
15
13
12
17
15
12
10
13
7
10
10
3
11
8
15
10
8
8
6
15
11
7
8
10
18
3
8
13
11
12
10
9
14
16
13
10
8
8
6
9
3
8
9
2
9
7
5
13
12
9
10
10
3
8
20
9
8
7
4
8
8
13
12
10
6
11
9
17
68
69
61
35
40
67
48
44
33
40
40
31
38
37
32
25
29
31
32
22
25
38
28
20
26
26
21
29
21
18
20
25
27
21
21
20
16
24
29
19
23
26
13
14
13
16
15
11
13
13
22
19
10
24
15
12
18
14
15
17
16
12
16
11
11
6
14
17
18
15
19
16
20
13
8
12
15
20
15
19
14
6
8
11
10
18
9
16
16
13
15
12
14
19
16
10
17
16
21
8
15
9
19
11
10
19
12
18
8
20
13
18
12
13
11
23
11
8
9
15
5
6
7
8
2
6
5
3
2
3
6
4
3
4
7
2
5
5
5
6
2
1
7
5
2
3
7
11
5
2
5
4
4
9
3
3
2
3
3
2
5
4
5
5
7
2
6
3
6
2
9
3
6
7
3
5
6
6
10
8
4
7
3
11
1
6
7
6
4
4
4
4
4
6
3
5
3
5
4
1
3
8
4
4
3
5
6
5
5
5
6
4
4
6
6
4
3
2
6
4
3
5
5
4
6
5
5
9
7
4
8
2
5
3
6
0
4
9
3
6
3
3
7
3
2
6
3
15
32
34
25
16
25
21
20
19
20
20
29
27
31
18
18
22
22
20
17
14
24
15
17
22
15
14
20
15
15
15
15
19
15
14
18
11
13
8
8
19
12
19
24
17
15
21
18
17
16
14
15
15
12
21
11
16
23
12
20
18
8
11
12
17
16
14
12
12
11
9
11
16
15
18
14
17
19
20
13
11
13
16
11
12
11
14
21
18
18
20
10
15
10
12
11
16
12
16
14
8
11
17
8
10
13
6
8
9
14
15
12
15
17
13
15
12
9
12
13
23
80
68
63
58
56
56
57
39
53
35
40
41
34
30
31
37
34
17
27
25
23
24
23
25
25
25
13
20
13
13
17
13
18
13
20
17
13
11
13
17
16
15
14
15
6
9
13
8
11
11
14
15
15
9
9
7
9
8
4
9
12
12
5
14
10
9
11
8
16
7
11
14
10
8
5
14
10
11
12
9
9
11
8
10
13
8
9
8
10
10
8
12
11
10
10
11
6
7
3
5
6
6
7
17
7
11
9
7
7
7
9
7
8
8
7
8
7
11
15
24
67
67
51
49
52
46
43
43
42
49
38
29
43
31
30
44
33
25
22
30
38
22
19
13
27
24
23
27
20
23
22
28
25
25
18
15
23
23
13
26
19
27
13
17
15
19
22
18
13
16
15
21
17
20
11
13
13
15
14
13
25
20
20
9
15
13
11
15
12
14
13
15
10
24
17
16
10
12
8
13
13
17
19
18
14
10
14
13
13
13
10
14
19
16
15
11
13
14
8
14
8
10
14
16
16
11
11
12
11
13
13
12
13
11
8
16
12
11
9
20
4
4
2
7
9
3
8
4
8
2
8
4
4
3
3
1
5
9
4
1
2
4
4
5
6
6
3
8
4
4
7
2
4
5
7
3
4
3
5
3
5
5
4
4
7
3
4
1
7
9
2
5
0
3
4
7
4
3
5
4
6
5
5
8
5
8
4
6
8
4
3
5
6
4
6
10
1
6
1
4
5
6
7
7
7
1
4
9
3
7
4
3
5
7
5
5
6
7
2
5
4
8
4
6
2
7
9
5
5
8
4
7
3
2
6
4
4
5
6
7
4
6
4
4
4
5
5
6
7
5
3
14
33
23
25
28
32
29
30
21
27
25
19
29
25
28
23
13
23
21
23
10
16
15
22
20
20
20
18
20
9
19
18
20
14
19
19
11
15
17
11
18
19
23
11
19
13
11
12
13
15
15
14
14
11
12
12
15
8
11
13
9
14
11
16
19
10
10
13
14
15
10
12
10
19
17
21
8
14
18
10
25
18
12
12
14
6
16
12
12
18
14
9
14
12
14
19
13
14
17
13
16
18
11
9
12
15
19
9
13
11
12
11
10
15
14
18
10
15
9
17
22
86
56
66
65
56
50
59
39
51
39
51
33
26
41
32
33
46
39
25
25
26
22
22
22
28
23
18
24
18
12
16
22
13
16
16
5
17
21
9
14
14
14
16
15
16
16
8
15
19
3
11
18
13
13
9
8
10
8
13
14
12
7
8
7
11
14
6
11
6
8
9
8
10
10
14
7
4
13
12
7
11
13
7
7
4
9
10
9
14
11
11
14
11
14
8
9
15
8
6
7
16
10
8
6
11
9
12
10
7
6
9
7
5
9
6
14
10
9
4
14
68
53
55
43
54
55
33
31
46
35
39
28
35
35
30
36
33
29
33
19
27
27
27
26
23
30
27
21
30
23
33
19
25
19
14
15
21
13
23
31
14
31
15
14
17
19
11
18
21
22
18
20
13
15
10
21
11
14
15
10
15
10
17
12
9
10
14
12
11
19
8
22
24
12
17
17
10
15
6
13
16
11
14
12
17
19
16
4
13
11
11
14
11
11
11
11
17
9
13
14
16
12
17
12
11
8
15
14
17
8
10
9
12
18
10
13
15
10
10
10
6
3
5
2
8
10
5
4
6
3
5
1
4
2
5
6
4
6
4
4
6
3
5
1
5
5
4
6
4
4
2
4
7
3
8
4
4
6
7
2
2
7
4
8
3
4
4
8
1
9
3
4
6
4
6
2
6
5
8
7
2
9
4
3
8
5
8
4
0
6
4
6
7
4
2
2
2
6
5
4
6
4
3
5
5
2
4
6
10
1
6
3
6
4
9
6
2
5
6
4
6
11
5
4
1
8
5
6
6
3
7
3
7
6
6
5
4
4
2
3
2
4
3
7
3
1
8
5
8
7
4
6
3
7
5
6
36
28
27
36
33
30
33
21
18
24
26
17
25
15
21
21
22
18
29
15
24
17
20
25
16
17
17
11
20
19
20
15
19
25
17
13
26
14
16
16
18
13
18
9
8
19
11
9
11
16
22
14
10
9
15
15
11
10
12
17
8
18
11
10
10
13
17
14
14
15
9
12
9
12
9
13
18
17
11
10
23
13
15
21
11
11
10
15
20
10
16
12
14
12
13
10
16
9
12
14
17
12
10
11
18
11
6
12
12
14
5
11
19
9
5
12
9
7
13
21
107
75
64
63
57
46
47
45
39
28
35
43
41
37
30
33
31
33
21
32
35
18
29
21
21
15
20
20
14
14
27
9
17
19
19
13
9
23
13
6
18
13
9
14
12
15
10
14
15
10
12
6
12
12
8
11
8
10
5
15
10
14
13
7
9
12
9
13
10
5
13
11
11
12
17
7
4
7
10
14
11
6
7
10
9
5
7
13
7
8
9
8
5
11
11
14
10
11
11
9
9
9
7
10
8
8
9
8
7
9
8
7
9
8
7
9
12
6
11
16
77
58
39
44
44
48
31
60
45
35
52
42
29
29
27
27
32
24
39
29
22
31
26
25
21
24
29
26
26
23
19
31
24
16
22
33
25
24
21
22
15
20
20
15
19
12
20
17
14
24
16
13
11
13
8
16
13
19
17
18
15
15
18
20
12
9
23
8
15
8
15
15
15
15
24
16
15
16
16
13
15
13
20
9
15
8
17
18
10
13
16
14
16
13
13
12
13
11
14
11
14
12
13
9
13
21
14
12
7
16
17
10
13
10
15
10
19
10
18
9
10
10
7
4
8
4
7
4
3
1
3
7
6
4
5
0
8
4
5
4
5
3
7
3
7
6
4
7
7
4
2
7
3
6
6
6
2
11
8
5
5
9
7
5
1
11
3
3
8
8
6
6
3
8
8
6
4
1
4
6
3
3
3
3
4
6
8
5
4
3
7
3
7
5
9
2
6
5
11
2
5
4
1
8
5
2
8
11
4
7
9
5
5
5
4
3
9
6
7
3
3
4
7
8
3
8
4
4
5
6
3
10
3
7
3
6
3
4
3
6
7
5
5
6
5
3
3
6
11
2
6
6
3
8
1
2
3
7
6
7
39
21
24
27
25
22
19
21
23
35
22
21
24
16
19
15
24
21
19
20
21
23
15
17
24
14
17
12
15
10
12
12
22
16
17
20
23
16
17
15
18
20
7
12
12
14
11
20
22
13
14
12
20
9
11
14
12
16
13
13
14
19
16
8
9
8
13
13
11
11
14
12
9
15
14
17
16
14
12
10
21
9
6
13
9
11
12
15
7
13
13
12
12
8
6
13
13
14
18
15
19
14
12
18
16
16
16
14
15
8
12
13
11
7
7
15
13
8
7
26
80
71
71
55
55
71
38
62
40
38
54
32
32
32
26
31
28
29
35
23
23
29
15
21
28
15
17
18
15
14
9
19
15
11
21
12
13
12
13
11
22
17
9
10
12
12
8
19
13
7
12
7
8
12
10
12
7
11
10
8
7
9
7
10
9
9
12
12
11
6
10
6
8
7
11
14
8
8
8
12
7
8
7
8
11
11
10
10
10
10
8
11
8
8
8
6
16
10
7
12
6
11
11
11
6
12
8
12
12
12
7
8
11
10
13
6
9
12
16
17
72
44
47
51
44
50
49
42
36
42
36
36
42
34
26
35
32
29
27
32
22
20
23
23
22
22
29
31
20
27
13
20
27
15
18
22
19
20
16
22
16
24
17
17
21
15
20
23
16
13
19
23
13
13
10
23
16
11
10
18
18
9
14
18
16
11
13
10
12
18
16
22
16
12
16
9
16
16
7
13
14
17
21
11
14
9
12
8
21
8
21
16
10
6
12
19
17
11
16
21
11
11
14
8
11
9
15
12
7
15
17
11
12
17
19
10
14
13
12
11
6
6
3
5
4
2
5
1
6
7
9
3
3
1
6
4
6
5
4
0
8
5
4
6
6
3
5
6
6
4
4
5
6
7
4
6
2
6
4
5
3
7
6
4
2
3
9
4
1
7
8
8
3
10
5
6
4
4
1
4
1
2
3
8
7
4
10
5
4
7
8
3
6
9
6
5
2
3
8
9
4
6
1
4
2
4
4
2
7
8
1
7
9
5
8
6
7
6
2
5
7
7
3
3
6
0
5
4
6
1
9
2
2
5
2
2
8
4
2
6
5
6
6
2
5
8
6
8
3
5
5
5
7
4
3
3
5
5
2
6
9
5
4
16
38
37
37
27
24
21
23
24
25
14
23
14
27
31
18
24
27
16
18
26
20
17
14
19
20
13
16
17
12
16
15
15
14
12
12
16
15
12
16
9
16
10
10
13
15
12
14
13
14
21
9
11
18
13
26
13
13
11
6
9
11
10
14
7
20
11
10
14
10
10
15
10
16
6
13
14
17
14
13
6
12
13
10
13
15
18
8
15
14
13
16
17
15
13
17
5
8
9
11
17
9
14
14
10
10
8
15
10
12
18
4
13
14
9
22
18
6
25
11
21
83
58
58
67
59
57
56
51
42
36
38
41
39
42
24
34
20
25
29
29
35
29
27
23
21
15
19
18
17
15
11
19
9
18
7
11
8
14
20
16
16
16
8
12
13
12
8
15
9
12
9
9
10
6
13
14
10
15
7
7
9
5
12
8
6
11
9
6
11
13
10
8
21
10
9
12
12
9
5
8
10
9
9
11
11
8
10
10
12
5
11
12
7
15
10
12
14
9
4
8
13
6
6
6
13
5
5
15
6
8
13
1
6
8
6
9
7
10
12
14
73
66
47
58
47
41
33
41
45
48
42
40
30
30
34
44
36
31
25
26
16
20
26
27
20
24
22
24
29
30
27
12
24
14
28
17
30
20
22
19
16
12
16
12
16
18
17
17
11
20
27
18
23
19
17
15
15
18
15
22
27
12
15
7
19
15
13
19
12
16
7
15
16
10
9
16
11
13
13
12
22
11
14
15
10
17
11
13
10
9
10
13
9
11
11
12
11
10
18
19
13
13
14
6
20
19
19
21
10
16
9
13
14
13
15
9
13
15
13
14
8
4
4
3
3
6
9
5
3
2
4
4
2
4
5
5
4
4
2
6
2
3
8
2
6
7
5
3
3
7
9
4
6
4
5
6
3
5
1
4
8
5
6
3
4
2
4
6
9
3
1
9
10
2
6
5
3
11
4
8
5
6
4
5
1
2
6
6
7
4
7
7
5
3
6
7
6
4
6
5
2
4
5
5
8
7
2
3
2
4
5
7
3
4
10
4
3
7
3
10
1
3
10
4
4
7
6
8
2
2
2
10
5
2
6
8
2
3
5
3
4
2
6
5
2
3
3
11
6
3
6
7
5
7
7
7
5
7
8
4
2
3
5
4
8
3
3
10
44
28
29
30
19
24
27
26
30
21
23
23
17
19
24
17
26
16
20
19
15
16
26
19
17
19
13
15
18
18
15
24
18
15
19
19
11
16
15
24
19
17
14
18
18
16
15
14
15
13
12
14
12
13
10
7
6
14
17
7
12
10
20
17
14
16
18
13
9
10
17
13
7
11
9
11
19
20
15
14
12
17
9
8
11
12
11
13
13
13
13
18
25
10
12
13
11
9
9
4
19
9
12
12
11
9
18
8
14
6
14
15
9
13
8
11
21
8
15
14
70
64
65
67
64
55
61
54
39
50
40
46
29
33
32
30
27
25
22
27
19
25
20
21
23
18
23
17
16
24
22
21
18
17
15
11
14
12
19
11
14
17
16
15
11
13
13
11
13
16
12
9
10
14
14
16
14
17
14
8
11
7
9
11
12
5
6
12
10
14
7
8
8
6
8
8
8
11
5
9
5
5
9
8
10
10
6
10
11
5
7
8
10
9
5
13
6
9
9
9
14
3
13
6
15
8
10
9
10
10
3
15
13
7
6
13
9
14
8
17
72
52
53
47
57
47
42
34
45
40
39
40
31
32
35
30
33
38
32
20
23
30
22
36
29
17
29
21
31
24
17
24
23
24
19
22
18
21
20
15
21
16
21
15
23
15
13
23
9
20
17
21
16
16
16
13
15
18
10
9
13
10
17
16
12
12
8
17
18
19
12
15
16
10
13
11
14
16
15
14
14
16
12
13
13
12
14
19
11
20
11
11
14
7
15
10
14
11
12
14
14
15
12
11
22
12
12
11
14
12
9
5
16
11
15
11
11
12
10
11
13
1
1
4
1
3
7
6
1
4
4
3
5
3
6
6
5
5
2
10
5
3
6
2
6
3
6
6
3
4
4
4
8
6
9
5
4
2
6
4
4
5
6
5
3
7
5
5
2
3
6
6
8
5
6
5
4
5
2
2
4
3
6
2
4
7
5
4
4
4
4
5
3
6
9
3
5
8
4
5
4
6
1
3
3
5
5
1
11
1
5
7
5
5
10
4
7
4
4
7
3
3
7
7
7
4
4
3
3
8
6
8
4
3
5
8
7
1
2
7
7
1
5
6
7
9
3
8
2
5
4
7
9
8
5
2
7
7
3
3
2
4
6
6
5
12
2
3
7
4
4
7
30
38
25
23
27
18
25
29
29
23
26
28
25
27
17
19
17
22
20
16
19
12
17
20
18
16
19
20
15
15
20
24
13
17
9
19
13
12
11
9
14
16
18
16
12
18
14
19
15
11
16
12
13
10
12
9
21
17
15
11
9
11
16
9
17
16
11
23
12
14
13
17
15
13
7
9
18
8
18
16
14
12
12
19
13
11
12
11
15
9
17
11
11
14
8
14
10
13
12
15
10
14
7
14
8
5
10
14
17
16
15
11
8
10
11
11
12
9
15
21
91
81
66
58
57
62
59
47
48
44
35
45
50
37
30
36
26
32
29
23
33
24
17
17
21
17
17
23
15
20
12
17
13
18
15
9
9
13
10
13
20
12
12
15
19
11
8
10
16
6
10
12
12
9
9
9
12
7
8
13
14
12
9
6
9
4
5
7
8
8
6
14
10
10
6
14
16
9
17
11
5
8
11
14
9
9
9
13
8
7
11
10
10
7
10
10
10
10
7
16
10
12
8
12
7
12
13
3
8
15
7
11
8
6
13
11
5
8
13
15
64
57
51
42
48
39
39
32
38
47
45
30
36
49
38
26
33
32
43
29
26
26
25
30
19
17
26
18
36
21
20
23
26
15
14
22
20
25
18
19
10
25
19
24
15
23
12
14
17
16
14
19
11
9
19
13
13
7
17
18
10
10
17
22
9
14
9
12
15
16
17
8
10
11
21
16
10
20
17
16
21
16
10
14
6
13
11
13
7
15
12
4
12
13
10
14
21
11
11
12
12
11
14
8
10
14
14
13
18
9
13
19
12
11
9
18
21
6
11
14
4
6
6
2
6
3
2
3
5
7
2
10
3
5
9
3
8
6
6
3
14
7
5
3
7
6
8
3
7
1
7
3
2
4
3
1
6
5
8
2
4
4
4
8
8
0
1
4
7
6
3
5
6
7
4
9
3
3
3
5
5
5
6
4
1
7
4
4
5
3
6
5
16
2
2
4
6
2
7
10
2
3
3
2
2
3
5
6
1
9
8
5
1
5
5
6
2
4
4
2
5
6
4
4
7
3
6
5
1
9
6
6
8
4
3
6
3
4
4
5
5
5
5
4
6
5
5
3
2
3
4
4
6
3
7
2
3
3
5
3
6
4
7
3
7
2
3
2
6
4
8
6
8
10
2
12
31
26
21
29
26
32
27
23
30
36
23
27
21
18
20
20
17
18
20
15
12
25
14
17
24
24
13
17
16
15
18
8
15
14
17
10
19
20
14
24
11
16
13
17
15
18
18
19
12
15
22
4
20
13
8
10
19
9
7
19
7
17
13
8
11
16
20
8
12
15
17
16
12
11
14
12
14
12
16
14
8
11
17
15
11
15
19
12
15
13
22
12
9
12
16
6
9
12
19
11
10
12
17
6
12
13
14
15
19
11
14
7
9
11
13
8
17
9
16
10
9
3
7
5
2
3
5
8
3
3
4
4
3
6
4
6
4
7
5
4
7
4
3
4
4
4
6
4
3
4
5
3
10
7
6
5
1
7
2
7
3
7
4
6
6
2
3
4
4
5
1
2
7
3
5
1
3
4
5
3
4
5
3
2
5
2
8
4
9
4
4
2
3
3
8
5
1
6
5
4
6
4
3
5
1
4
4
5
1
1
8
0
2
0
4
5
6
3
5
5
2
4
4
3
2
4
2
4
4
4
4
5
7
4
7
4
3
3
4
5
4
5
5
7
7
4
4
2
4
3
3
4
6
0
3
1
3
2
3
1
3
5
4
3
2
6
6
2
2
1
2
3
3
4
3
6
4
7
1
1
6
3
5
4
5
5
3
6
4
1
4
7
3
5
5
6
2
4
4
1
5
5
4
9
0
6
6
6
