#Saved Data from the class pulsed_measurement_logic on 18.11.2022 at 14h13m10s.
#
#Parameters:
#===========
#
#bin width (s): 3.0000000000000000e-09
#record length (s): 5.8403999999999999e-05
#gated counting: False
#Number of laser pulses: 19
#alternating: False
#Controlled variable: [1e-07, 2e-07, 3e-07, 4e-07, 5e-07, 6e-07, 7e-07, 8e-07, 9e-07, 1e-06, 1.1e-06, 1.2e-06, 1.2999999999999998e-06, 1.3999999999999997e-06, 1.5e-06, 1.6e-06, 1.6999999999999998e-06, 1.7999999999999997e-06]
#
#Data:
#=====
#Signal(counts)
1
2
4
3
1
0
3
1
2
2
1
2
3
2
3
0
4
1
3
2
2
2
2
3
3
1
1
5
37
14
25
31
27
22
20
21
16
21
25
23
23
25
24
17
22
21
21
17
19
11
18
17
18
14
16
22
15
18
12
22
20
14
17
15
11
17
15
16
16
12
23
11
18
21
13
10
12
14
16
12
17
14
3
10
18
8
11
14
11
9
17
7
12
7
12
8
3
12
8
10
8
11
15
14
7
4
9
11
14
9
10
10
13
16
8
14
6
13
12
9
12
9
9
2
4
9
12
13
15
6
13
17
9
14
11
12
3
7
9
8
8
10
13
8
13
9
8
9
4
8
8
7
14
12
9
7
9
10
7
8
9
10
10
10
11
7
6
6
5
11
10
11
7
4
12
14
10
8
8
14
6
6
7
12
5
6
9
7
5
9
8
5
3
10
10
10
6
8
10
7
6
7
4
7
9
12
6
8
5
15
10
7
8
3
12
6
10
3
17
12
4
9
10
5
3
5
8
6
6
10
13
9
7
7
11
7
9
9
7
6
9
8
8
11
9
3
8
10
6
10
11
14
12
8
13
3
2
8
9
9
13
6
9
5
12
11
19
9
4
12
11
13
10
8
2
7
10
4
10
8
6
13
6
2
5
7
6
4
9
9
3
9
8
9
5
8
5
5
11
9
5
15
10
9
7
8
6
9
4
3
10
2
7
8
7
7
11
10
7
5
9
8
7
9
7
12
8
6
5
5
8
9
4
5
10
5
6
7
7
5
6
9
13
5
12
8
8
5
1
6
4
13
8
14
12
8
5
11
13
5
8
84
128
94
83
99
95
77
65
66
75
59
49
58
63
69
69
39
46
47
40
46
44
48
41
36
43
30
43
38
22
48
26
25
29
27
40
25
20
29
21
18
26
27
25
25
19
13
14
15
24
15
19
17
19
7
18
13
15
20
18
13
13
17
14
17
17
15
14
12
9
9
7
14
11
10
14
20
7
9
15
11
11
4
7
11
12
9
11
5
12
9
4
8
12
15
17
15
13
9
10
19
11
12
10
15
9
9
12
8
13
4
9
7
6
12
10
11
6
8
5
14
10
15
11
15
11
9
9
12
14
11
15
9
10
10
15
14
11
8
12
13
10
17
8
8
10
16
11
9
6
7
9
10
10
10
11
10
18
7
8
7
14
13
12
8
6
7
14
11
12
11
5
9
14
19
12
9
13
13
14
7
13
20
11
10
9
14
11
11
10
9
6
7
10
11
9
17
11
8
13
9
8
9
15
8
5
9
11
4
7
11
8
10
6
14
12
5
11
12
8
16
5
10
15
4
10
9
8
9
7
10
12
9
8
7
10
6
11
10
6
10
8
6
15
4
10
9
7
4
9
10
14
5
8
8
9
11
14
6
10
11
9
12
5
12
6
9
13
8
9
9
12
9
9
11
12
11
9
8
8
11
10
10
11
8
9
9
11
12
11
7
14
5
12
8
10
10
8
7
12
10
4
13
7
4
10
6
6
8
14
2
12
8
11
5
9
6
10
6
11
13
6
10
13
16
8
11
7
12
12
10
10
11
8
4
2
2
5
4
5
3
3
1
2
4
0
2
1
3
1
3
3
2
4
3
1
4
3
2
2
3
1
0
3
2
0
5
0
3
5
2
4
6
45
68
42
45
48
43
38
39
43
41
37
48
34
31
43
43
23
33
33
26
32
36
34
34
28
30
28
24
24
24
27
23
29
38
30
19
24
22
18
15
16
22
22
25
29
18
14
21
20
22
25
18
18
9
14
16
12
21
13
16
20
18
13
19
19
14
24
15
13
14
11
18
10
21
12
9
13
13
8
19
11
14
9
12
10
4
9
11
12
17
8
7
6
9
10
8
7
12
9
10
18
9
9
9
7
9
12
5
2
10
5
8
7
10
14
5
9
8
11
7
5
11
16
6
6
7
10
4
10
10
5
3
11
13
8
6
3
6
6
4
12
12
10
10
11
13
7
12
10
4
11
7
5
6
3
11
10
5
5
7
5
8
10
7
7
12
10
7
7
10
7
6
7
4
4
9
3
12
9
9
7
11
2
12
8
8
4
8
11
8
9
10
8
7
5
3
5
9
10
10
8
11
7
10
11
11
6
10
10
10
6
9
15
13
10
9
10
9
2
13
8
8
4
11
12
6
8
16
6
9
11
14
12
6
15
6
9
8
4
7
6
11
9
15
5
9
7
11
6
13
11
9
7
5
9
8
4
9
7
8
4
6
9
7
4
8
7
7
9
4
10
9
10
7
5
5
12
9
15
3
4
6
13
4
4
7
9
7
7
10
9
11
9
11
3
7
7
5
7
5
7
3
10
8
8
8
6
7
5
7
5
7
9
8
7
10
11
13
5
6
7
5
5
13
9
9
11
3
9
3
4
6
8
14
109
116
101
103
73
85
75
73
72
70
64
72
72
69
49
57
48
35
48
43
53
42
38
51
30
40
36
40
27
33
30
27
31
28
29
19
21
21
22
25
28
17
21
19
26
16
13
24
25
25
14
24
21
19
18
13
29
16
17
20
12
11
10
12
21
14
17
7
9
18
20
10
14
15
7
9
7
12
12
9
9
16
9
8
12
21
16
8
9
8
14
13
12
12
11
8
7
14
10
19
11
15
9
19
5
8
11
10
10
8
17
9
7
17
5
10
16
15
11
7
13
16
7
5
8
18
14
14
14
11
10
10
8
12
11
9
14
12
13
11
12
6
6
14
14
15
3
11
11
9
14
11
12
14
7
11
7
12
7
12
8
13
7
8
14
8
11
9
8
13
7
10
8
13
6
8
15
10
11
18
6
11
9
16
13
10
11
8
14
18
5
7
15
15
7
8
8
10
12
6
10
8
11
10
12
11
7
8
6
11
15
3
13
13
8
13
9
12
7
8
9
10
13
6
10
11
11
6
9
10
7
14
7
12
13
9
11
10
4
11
14
10
10
7
8
14
15
7
7
9
10
10
10
10
11
15
15
7
9
14
10
4
6
6
5
13
7
3
12
13
11
5
14
19
15
10
11
14
11
7
7
7
20
13
7
8
14
10
9
10
19
16
4
7
6
7
9
8
7
4
11
11
11
11
6
9
9
14
8
11
10
12
5
10
10
8
5
11
11
11
15
11
14
6
8
11
7
10
5
10
6
5
7
3
1
6
4
1
0
3
3
2
0
4
2
5
1
0
3
3
0
1
4
0
4
2
1
2
1
1
0
2
2
2
4
2
2
2
2
4
2
3
4
4
2
1
1
0
2
3
1
3
3
3
3
2
5
0
0
0
1
0
2
2
0
2
0
2
0
3
3
0
0
2
1
2
28
52
33
44
46
46
44
39
44
31
33
33
22
41
27
29
33
31
32
41
21
28
34
17
25
25
23
22
36
22
20
20
19
24
27
25
24
24
20
20
23
18
18
24
18
11
22
16
8
21
16
20
13
21
17
18
21
9
10
19
15
22
15
19
13
17
12
7
13
8
12
13
14
19
8
20
8
6
12
11
16
12
21
13
14
15
10
13
10
9
8
7
11
15
12
10
11
9
12
13
7
17
9
9
5
9
8
9
9
8
8
4
11
10
10
11
13
7
10
11
13
14
9
13
8
11
13
8
5
5
9
12
7
8
10
9
12
11
7
15
10
12
6
9
8
11
10
11
7
9
9
4
7
11
12
8
14
4
12
8
13
10
11
11
7
8
17
9
10
9
11
8
11
7
6
6
2
13
12
14
8
10
8
7
2
5
11
10
8
11
6
7
11
7
7
9
7
2
7
12
8
11
17
1
8
11
6
8
13
10
11
5
11
7
12
6
8
15
10
12
10
16
9
12
7
3
10
4
14
11
11
8
7
6
4
10
3
12
2
5
7
11
6
8
11
8
9
5
9
5
6
7
6
11
4
4
9
3
3
6
11
4
7
9
6
7
12
5
17
11
13
8
6
10
8
6
8
6
8
5
2
9
7
5
13
8
11
8
10
10
11
8
11
11
8
9
5
7
4
9
8
4
6
9
8
15
6
11
8
10
8
8
5
4
13
8
5
6
2
8
9
9
10
10
12
10
8
12
12
9
9
4
9
10
113
115
103
100
69
69
86
64
62
62
59
73
55
63
47
59
60
57
41
50
43
50
31
42
31
45
35
38
27
29
29
26
30
29
29
24
35
21
32
22
18
24
27
26
24
25
11
25
21
28
17
11
20
16
10
22
15
11
16
14
16
18
9
9
16
8
23
7
16
19
16
10
17
9
13
8
10
10
10
17
13
9
12
5
15
9
11
12
8
12
6
12
11
11
9
9
11
13
7
14
10
11
8
7
10
8
18
12
13
7
10
8
17
10
9
8
10
9
13
6
9
14
7
13
16
11
10
13
9
15
9
11
13
8
14
10
7
16
9
6
14
10
11
19
14
15
9
13
10
10
8
10
9
12
11
14
8
9
10
8
8
6
5
13
12
13
11
3
9
9
8
14
9
11
6
14
10
18
11
5
5
8
14
6
7
17
7
9
9
9
15
7
8
10
10
11
9
12
11
13
9
8
4
8
11
11
10
8
9
11
11
6
11
8
10
8
10
8
7
11
10
11
6
12
4
11
8
12
10
7
11
5
7
17
7
12
6
11
7
15
4
14
13
13
12
10
10
9
10
6
14
9
11
15
8
9
5
8
6
11
10
7
5
8
11
14
9
7
9
11
10
13
7
9
12
5
13
10
15
13
7
13
9
9
8
8
11
10
9
4
11
6
10
13
8
11
6
4
6
6
17
8
12
10
7
11
12
7
14
6
9
3
17
8
11
13
11
11
12
5
11
8
8
17
8
10
15
4
13
6
12
14
12
6
5
4
3
3
2
2
4
3
2
2
3
2
5
1
3
1
2
3
1
0
2
1
3
5
4
5
2
3
2
3
2
1
5
1
3
7
3
3
1
3
0
1
2
0
1
0
1
2
1
2
2
2
1
2
1
5
3
5
0
4
5
1
2
2
1
1
0
2
1
2
2
3
0
3
1
2
6
4
1
2
3
6
2
3
2
4
1
1
2
1
4
5
3
3
1
3
3
0
0
3
2
1
1
1
3
13
65
35
39
42
48
41
29
38
37
27
33
27
20
33
24
31
37
39
30
25
23
24
19
27
26
24
23
30
21
22
27
18
22
26
24
24
21
5
20
24
22
17
27
23
17
14
18
17
16
9
22
18
15
16
11
14
18
10
17
18
15
10
11
12
15
14
16
14
12
17
14
12
14
14
15
6
15
22
9
7
10
13
8
15
13
8
10
13
13
11
10
13
12
17
9
12
11
13
10
13
9
12
12
11
11
6
7
7
11
11
12
14
10
13
7
9
11
8
11
8
11
11
12
10
9
9
12
12
9
7
14
15
5
8
13
11
9
5
6
10
11
7
13
9
11
8
11
11
11
11
4
8
12
5
4
8
9
9
12
13
6
7
6
8
9
9
2
5
11
9
8
5
14
8
10
7
9
9
4
6
3
8
7
10
13
7
5
11
12
11
12
10
11
3
9
11
4
7
13
11
10
8
9
4
9
7
10
6
10
7
8
8
9
9
13
9
7
15
3
3
8
6
12
4
6
8
7
11
4
16
11
9
7
4
7
6
9
10
6
6
8
6
6
9
12
9
10
10
13
12
5
4
10
6
6
9
10
7
5
13
9
9
5
6
8
8
7
8
9
7
9
10
8
11
3
5
5
4
5
9
11
7
10
7
3
7
6
13
9
7
11
8
10
8
7
13
7
8
5
4
4
7
9
4
8
5
3
6
3
7
8
10
9
6
5
8
5
3
8
8
6
7
10
5
6
4
6
9
7
7
7
13
5
74
131
84
98
98
96
85
64
62
62
69
54
68
51
60
52
56
46
43
41
47
54
39
36
44
29
38
39
30
29
42
26
42
31
29
29
18
22
29
31
18
21
20
19
16
23
24
29
19
20
29
10
16
18
19
22
17
15
18
14
17
12
22
18
8
11
16
16
16
10
12
12
19
13
10
19
12
11
10
15
13
12
12
23
13
12
8
13
11
18
11
9
8
18
15
12
20
10
12
10
12
7
8
9
8
6
11
13
9
10
10
7
14
11
9
13
13
8
9
12
6
11
12
14
12
10
8
10
9
8
13
5
6
8
10
11
17
11
6
9
15
8
6
7
8
9
13
11
9
14
9
10
9
7
13
12
8
7
7
9
10
6
6
7
12
6
7
9
16
9
13
8
12
8
10
6
3
13
9
7
9
9
8
12
11
15
7
10
3
10
15
10
9
5
10
10
10
12
11
10
9
13
8
7
10
15
9
7
12
9
14
8
10
10
11
10
14
8
11
10
6
12
9
5
9
11
13
5
7
10
8
8
12
16
8
12
8
10
17
5
7
12
14
14
11
9
8
6
17
12
9
9
13
11
16
4
10
11
3
5
7
7
8
10
9
10
7
13
13
12
8
10
11
6
15
13
12
11
13
9
8
10
9
14
9
13
11
15
8
13
10
9
7
10
10
6
5
12
11
7
9
12
6
16
7
10
8
5
8
10
12
10
12
9
4
10
10
5
11
13
10
12
10
12
15
10
7
8
14
10
17
16
9
10
3
3
1
3
3
2
2
3
3
0
5
1
2
2
2
2
2
5
0
4
4
5
0
3
1
1
1
1
2
0
1
5
4
1
1
0
3
4
2
2
0
2
2
1
2
3
3
2
3
2
5
0
4
7
3
3
3
7
3
0
5
2
1
3
1
2
0
1
6
1
2
0
1
3
2
1
3
0
5
1
2
2
3
2
1
3
4
3
5
4
5
4
2
2
4
2
4
1
1
1
1
3
2
5
3
3
2
3
0
5
1
4
3
0
3
0
2
1
5
5
1
3
1
1
3
0
2
0
1
4
3
4
4
0
1
1
1
3
1
40
44
53
51
49
39
36
34
39
40
40
31
32
34
40
32
27
26
23
24
27
21
25
31
22
23
31
21
22
28
25
22
25
17
20
19
23
19
18
21
19
13
19
15
24
19
15
25
15
14
11
13
13
20
18
17
18
14
20
18
14
9
16
14
16
13
12
13
10
14
12
9
13
7
12
7
11
12
14
10
15
12
14
8
21
5
11
8
11
8
14
11
7
13
7
13
8
15
12
7
12
8
12
10
10
7
4
9
14
8
9
7
10
9
9
13
10
11
8
9
11
10
7
10
7
7
14
7
6
12
6
9
6
10
7
15
12
7
13
9
7
9
12
8
7
14
9
7
7
9
8
6
11
8
5
12
11
9
8
8
9
10
11
6
5
8
13
4
3
8
8
4
11
5
13
11
14
7
7
3
12
13
9
11
9
11
4
4
9
6
8
4
7
11
13
8
10
4
10
7
5
12
10
9
9
12
9
10
10
4
10
9
8
7
7
5
5
7
9
4
14
9
13
6
6
15
8
9
6
4
7
5
8
5
11
8
9
15
8
10
10
4
8
6
8
5
6
5
4
10
8
10
15
6
9
7
7
7
10
14
7
12
4
16
11
4
16
7
7
7
7
8
11
17
8
10
7
11
9
8
6
8
10
5
9
6
10
8
9
9
8
9
8
5
5
11
7
10
12
6
11
6
15
9
11
6
10
7
6
6
3
9
6
8
3
14
3
7
8
12
11
10
3
4
10
6
8
6
8
13
11
5
5
12
95
107
85
87
78
72
84
81
72
78
49
74
68
64
66
52
48
41
46
49
45
37
44
37
32
37
36
37
38
29
37
22
22
26
34
21
24
18
25
26
17
18
24
17
16
16
33
23
20
19
16
17
13
10
19
17
14
17
17
12
22
11
12
5
13
17
10
14
15
9
13
13
10
15
13
14
11
13
19
11
12
15
10
5
4
10
11
13
11
6
13
8
9
10
12
8
17
8
8
10
6
4
9
8
14
12
15
9
8
15
13
13
11
9
6
13
11
7
9
14
8
4
12
13
12
11
10
7
10
8
6
12
11
15
14
13
15
8
14
9
8
12
8
10
9
8
9
14
10
10
11
14
13
6
12
11
17
7
8
10
11
13
9
5
12
15
9
12
9
9
9
6
12
15
12
6
9
14
16
6
11
6
15
10
11
12
11
16
13
12
15
10
11
8
11
10
12
10
9
13
9
12
12
7
10
7
5
9
14
7
9
13
13
13
11
6
10
13
10
9
18
8
11
12
8
7
11
14
11
11
4
14
18
10
11
14
7
12
12
9
12
15
8
7
10
6
12
7
11
13
10
12
6
7
8
9
5
7
5
8
10
8
10
8
6
10
6
9
11
10
13
6
9
8
10
6
7
5
12
5
11
7
18
8
12
14
16
10
11
8
8
13
9
7
11
11
10
8
18
6
9
14
8
16
18
10
8
10
13
10
11
8
9
5
9
9
10
8
7
10
11
8
14
9
15
8
11
6
8
14
11
11
10
5
4
1
3
2
4
4
2
2
6
1
3
1
2
2
1
1
4
0
1
3
2
4
3
3
4
1
2
3
2
1
3
2
5
1
2
3
1
3
2
5
3
4
1
2
0
0
0
2
4
4
3
0
0
1
0
2
6
4
3
0
4
6
1
2
3
3
1
0
4
1
1
3
2
3
2
3
1
2
1
4
3
1
2
3
4
1
0
1
2
2
4
0
3
3
1
2
3
5
1
4
1
4
1
6
1
3
2
2
2
0
1
1
0
5
3
3
2
1
3
5
2
3
3
1
0
2
3
3
0
1
4
3
5
3
1
0
0
1
0
2
2
4
2
1
3
1
5
1
3
1
1
1
1
0
2
3
4
2
2
1
2
2
3
3
2
1
0
1
2
0
1
1
22
34
37
35
30
39
40
34
34
34
36
32
26
29
24
27
15
37
15
22
35
17
25
22
36
23
24
20
29
18
21
23
17
22
29
16
17
16
17
18
15
19
18
14
20
24
15
16
16
15
18
21
10
14
18
19
14
18
11
14
19
12
10
11
13
14
14
22
15
14
14
16
13
13
13
10
14
11
13
19
8
12
8
4
5
8
11
12
8
13
12
3
9
7
5
7
11
8
14
7
8
10
8
10
5
6
12
11
7
11
14
8
4
7
13
6
6
13
15
8
8
9
8
13
7
12
7
11
9
8
13
7
13
11
7
9
11
8
14
6
4
10
12
6
6
5
9
6
13
10
7
7
7
5
8
10
13
9
10
8
5
6
8
9
9
9
14
4
8
7
10
8
5
13
7
9
11
8
10
9
7
8
7
7
9
4
12
11
4
8
8
4
4
4
6
12
9
9
6
8
11
6
11
8
8
4
8
12
7
9
9
13
8
5
1
11
4
8
7
7
6
8
11
12
11
8
9
11
12
12
13
8
14
9
12
11
10
9
6
10
6
8
8
5
7
11
10
5
6
6
7
10
8
15
2
6
9
11
9
5
11
6
9
11
4
5
9
7
6
6
8
8
9
7
8
9
11
4
6
12
12
5
15
8
4
5
15
14
3
13
7
8
4
8
9
6
12
8
11
9
9
7
8
9
11
10
6
6
7
10
10
13
9
6
11
5
7
9
5
7
8
8
9
3
7
6
9
6
8
12
11
7
13
25
104
105
93
107
83
84
72
66
73
74
87
67
68
54
51
56
40
42
50
35
38
45
42
51
48
30
37
40
34
43
29
30
31
26
26
23
28
27
29
21
15
29
20
24
14
16
12
24
21
29
14
17
15
12
12
13
25
16
13
12
18
17
11
16
7
13
20
15
13
13
11
9
13
11
10
15
10
12
15
15
8
13
8
10
11
14
7
18
9
13
18
11
6
12
14
10
14
11
20
13
9
8
9
10
11
6
13
12
11
15
11
10
12
8
9
10
10
14
13
11
6
10
8
14
11
13
11
10
10
11
15
11
15
22
11
9
11
11
13
11
11
10
10
10
9
10
9
10
3
13
13
6
6
10
16
13
10
7
13
18
12
9
5
7
11
12
7
14
13
9
21
11
11
9
12
9
7
12
11
10
7
13
8
10
10
12
11
10
11
7
10
10
13
10
7
8
4
13
10
9
14
11
7
9
9
7
8
9
7
6
11
8
14
8
10
10
15
7
11
8
14
8
8
9
9
8
8
13
6
12
14
13
17
10
6
6
12
12
11
10
13
12
17
10
7
13
10
10
8
9
7
10
9
5
10
7
7
10
9
10
7
8
11
10
13
7
12
8
10
12
6
11
4
12
20
7
15
16
9
14
10
12
10
6
8
15
9
15
14
12
6
14
13
7
11
9
9
14
7
5
13
7
13
10
10
13
6
9
8
6
5
8
11
10
14
8
6
6
10
14
10
11
13
15
16
18
13
11
12
9
14
11
8
6
3
5
2
2
2
2
1
2
3
2
6
3
4
5
5
1
2
3
2
5
4
1
6
2
3
2
2
1
2
4
0
3
0
5
2
1
2
5
3
1
3
0
1
1
2
0
4
3
2
2
0
2
2
2
6
1
1
0
4
2
4
2
1
2
1
2
1
3
3
5
3
1
1
1
1
2
3
0
3
2
4
3
5
3
2
1
2
2
0
2
3
0
2
7
1
3
4
2
3
1
3
3
4
1
0
1
2
0
2
1
2
2
4
2
0
2
1
2
5
3
0
2
4
0
3
3
0
1
3
1
3
5
5
0
4
2
3
2
1
0
3
3
2
6
1
2
2
2
6
4
0
1
2
2
3
3
3
2
2
1
6
4
5
2
1
3
3
2
1
2
4
1
2
4
1
4
1
2
1
5
4
2
1
1
0
3
2
1
2
3
3
4
2
1
2
1
3
1
1
3
5
1
2
2
4
12
68
26
42
37
33
40
29
26
29
39
29
35
29
20
21
20
29
25
22
24
27
28
22
17
21
20
16
20
21
22
22
24
13
23
24
19
18
29
10
19
14
21
23
15
23
19
14
16
17
21
16
12
17
14
10
12
14
18
13
15
11
12
13
14
8
14
14
12
15
9
18
8
9
10
12
9
12
11
11
8
15
12
6
12
11
11
7
10
8
4
12
9
8
4
12
13
11
12
14
17
10
13
6
6
11
11
7
3
10
9
14
7
11
6
8
8
7
7
14
8
4
8
10
9
12
9
6
3
11
11
13
10
10
6
11
11
8
6
7
6
10
9
9
16
5
10
10
7
11
6
8
5
2
7
3
14
10
8
7
5
11
9
11
6
9
12
3
10
8
11
17
15
14
6
13
8
9
8
14
10
6
12
6
10
5
3
8
10
8
4
7
7
12
8
15
7
6
6
4
10
9
6
9
6
3
9
11
11
7
8
11
8
11
16
5
6
8
7
9
8
9
3
12
6
11
9
9
9
5
5
4
4
9
9
5
13
6
5
8
6
13
11
8
4
8
14
6
11
6
6
11
10
9
5
6
4
12
10
5
8
13
8
6
7
7
7
9
7
10
7
2
7
7
7
7
9
7
7
6
7
8
10
11
6
12
6
6
10
6
3
10
12
6
8
8
6
9
7
5
9
6
3
1
7
12
10
10
11
8
1
6
11
5
6
8
10
12
9
8
11
8
6
11
13
8
7
6
10
6
7
7
8
7
78
136
82
76
85
72
76
72
63
59
68
68
55
38
73
60
60
56
49
57
33
36
35
47
52
36
24
38
41
34
36
36
30
35
26
32
30
29
26
31
30
19
21
25
17
16
24
22
13
23
11
13
22
16
15
13
12
15
21
13
14
8
23
15
12
18
13
15
11
20
16
16
9
16
10
17
15
7
11
13
12
11
10
11
13
7
11
10
11
6
5
15
17
10
14
7
11
14
17
7
14
7
11
8
8
9
15
18
9
11
12
7
9
8
19
9
12
16
10
6
9
5
12
19
15
6
15
7
7
10
14
9
8
8
10
13
10
8
10
6
11
5
15
15
19
12
5
7
14
11
8
17
12
11
12
7
14
10
8
12
7
9
15
9
12
9
8
10
17
10
12
11
12
9
5
8
11
7
17
11
12
7
14
13
14
9
8
12
8
5
8
9
5
4
6
10
13
10
7
14
14
9
12
2
11
13
13
7
9
8
9
7
6
13
8
13
13
15
6
13
5
13
6
6
14
4
4
10
17
4
10
3
12
10
11
9
10
9
16
13
16
8
9
10
9
7
7
11
9
14
6
16
14
8
18
8
9
8
6
12
5
8
11
8
14
6
10
7
8
10
8
12
10
9
9
11
14
14
10
4
7
11
13
12
19
9
23
7
9
15
9
10
14
12
9
9
8
12
11
10
10
13
10
7
11
6
5
4
11
12
15
8
10
12
8
11
7
11
9
14
10
4
8
12
14
18
4
9
9
6
6
6
8
8
3
4
6
2
2
4
1
3
1
2
1
0
2
4
1
5
3
2
2
1
0
1
2
0
2
1
2
4
4
1
5
2
4
2
1
3
3
1
4
1
2
1
1
5
3
2
1
1
0
1
4
4
3
0
4
0
2
0
1
4
0
0
3
6
4
2
0
1
0
1
0
2
4
0
3
2
2
2
2
4
1
2
1
3
1
1
3
2
1
0
1
1
1
1
4
1
4
1
1
1
2
1
4
4
2
1
1
1
1
5
3
2
0
4
3
5
4
2
2
3
0
3
1
1
1
3
1
1
4
1
7
2
0
1
2
2
3
2
3
2
3
3
4
3
1
4
2
2
3
2
2
6
1
0
1
2
2
3
3
0
2
2
2
2
1
0
0
3
2
1
3
5
2
3
3
1
2
3
3
1
3
2
1
1
0
2
4
4
2
1
3
3
3
1
0
1
3
5
4
1
0
1
2
3
1
1
2
3
4
2
3
2
3
1
2
2
3
2
4
3
2
2
3
1
2
1
3
2
0
2
1
4
3
1
2
1
2
1
1
28
43
30
36
31
36
32
27
32
29
18
27
33
22
29
27
29
24
26
29
17
18
26
24
23
31
16
24
15
19
14
20
22
20
14
15
18
17
16
17
19
23
16
12
17
17
14
17
13
7
17
16
14
14
15
18
14
14
12
19
13
14
12
3
10
18
16
19
10
20
8
10
12
11
12
7
13
7
15
10
6
12
11
10
10
14
8
18
6
8
10
10
11
9
10
5
10
5
13
7
7
13
9
6
14
6
8
12
6
13
9
8
12
12
4
11
9
10
12
10
9
7
13
10
6
7
13
8
10
12
7
7
6
7
9
10
11
9
11
13
5
8
15
6
9
9
8
11
9
8
10
11
10
8
11
9
8
7
8
7
4
15
5
10
4
6
7
8
9
8
8
7
12
5
12
6
6
9
8
6
10
6
12
11
3
9
11
11
14
12
6
5
6
9
4
9
12
6
9
7
9
14
4
10
8
8
6
2
11
8
5
10
4
13
10
5
11
11
8
3
5
8
11
10
4
9
10
5
8
11
7
8
8
8
5
2
9
9
6
8
14
5
7
13
5
10
5
6
6
7
10
11
7
6
5
7
8
12
5
10
10
6
6
9
9
4
7
7
12
6
9
10
4
9
9
9
8
7
6
2
7
4
15
5
5
11
6
7
11
12
11
8
8
10
5
4
10
8
11
4
7
3
3
8
7
9
13
7
6
10
9
10
11
4
12
7
7
6
5
10
6
8
7
9
7
6
13
8
6
8
8
6
6
15
80
108
90
86
90
75
74
65
77
63
66
50
62
59
52
51
58
48
47
48
57
43
50
30
37
43
33
32
38
33
47
33
25
26
24
26
31
37
24
19
21
20
17
19
22
20
24
22
18
16
17
16
17
25
16
20
10
9
13
16
14
13
10
14
21
12
22
9
13
16
21
15
7
22
15
14
9
16
11
9
8
9
14
10
13
9
14
19
11
22
10
12
10
10
12
11
14
11
13
11
16
13
10
5
8
8
12
11
11
4
9
11
9
14
9
18
7
16
12
8
13
6
17
13
17
14
11
13
7
18
18
6
14
11
6
15
15
8
12
15
6
8
7
9
6
11
14
10
10
10
10
8
12
7
6
9
14
7
14
8
8
8
8
11
11
9
8
8
7
7
7
8
8
10
12
10
10
12
14
6
16
11
9
11
9
4
9
5
8
9
10
7
5
10
8
12
15
13
10
8
6
5
13
9
7
18
14
7
13
16
10
7
7
9
9
13
8
6
12
5
6
7
10
12
8
11
6
11
12
10
15
6
8
10
6
11
5
8
7
8
13
9
9
10
13
13
7
13
5
9
15
15
11
8
11
5
11
7
7
7
10
12
9
8
13
12
14
9
13
12
8
11
10
13
8
13
11
14
14
12
8
14
12
11
6
11
8
15
12
18
10
15
9
9
6
6
18
13
13
4
18
11
10
12
6
14
10
8
10
11
16
9
10
7
12
12
7
9
10
11
6
11
18
13
9
13
12
9
8
7
10
13
6
4
1
3
2
2
2
1
2
3
4
3
1
1
1
1
2
5
8
1
3
1
2
2
0
4
5
3
4
3
3
5
3
2
2
4
1
0
2
3
1
2
2
2
2
3
4
6
2
1
1
1
4
4
3
3
1
2
2
0
2
1
0
4
0
1
2
3
4
6
1
5
0
2
3
2
0
3
1
1
0
7
2
1
2
5
1
2
5
4
0
1
3
2
3
4
4
1
2
1
3
3
1
0
1
2
2
2
4
3
5
0
1
5
2
1
0
3
2
2
5
2
0
1
3
2
3
2
2
1
4
1
3
0
4
3
3
1
2
2
0
4
1
2
0
4
3
2
2
4
2
2
1
2
3
4
3
1
2
1
4
1
0
2
1
1
2
2
6
1
4
2
1
6
4
2
2
1
3
5
1
1
0
7
1
2
2
4
1
2
2
1
2
1
1
1
5
0
0
1
0
4
0
0
3
1
4
1
3
1
2
1
5
6
1
3
1
2
2
2
2
5
4
3
5
2
5
3
2
5
4
3
2
2
4
0
3
4
3
1
3
2
2
4
3
4
3
3
4
2
3
2
2
4
3
0
2
1
1
8
3
0
2
0
2
0
3
2
6
3
2
4
1
1
23
49
27
35
37
32
36
27
23
38
32
36
23
29
31
20
29
21
28
20
25
18
32
22
26
21
25
17
25
20
25
19
18
22
22
22
18
19
11
19
11
9
15
13
10
26
16
18
13
10
14
20
14
18
8
19
15
16
14
16
17
8
14
8
14
20
7
12
8
13
23
6
12
15
17
12
10
17
10
12
13
8
9
17
8
8
12
8
14
10
7
9
10
13
4
5
7
13
7
5
7
10
9
10
3
15
5
12
8
11
5
9
7
10
13
7
9
5
9
11
14
7
11
4
6
6
9
8
9
9
9
10
8
4
10
12
8
6
10
11
11
11
10
6
6
9
8
5
6
13
10
8
14
5
7
10
7
5
6
8
10
6
10
9
7
6
7
13
9
8
11
8
6
5
12
6
11
7
15
7
4
8
4
7
7
12
8
7
8
9
1
6
5
10
15
9
12
4
5
11
7
5
9
6
8
15
6
12
4
5
6
15
5
8
10
5
15
10
9
8
8
12
7
5
11
9
10
12
7
12
11
13
12
8
7
11
8
5
8
5
17
9
7
11
13
16
9
7
11
6
6
7
7
12
9
8
11
14
5
10
12
13
10
12
7
6
12
9
8
5
10
7
7
6
11
6
7
8
6
8
9
7
2
10
9
2
10
6
8
5
8
10
8
8
5
8
14
8
10
14
7
12
10
10
9
8
13
6
9
6
11
8
10
12
8
6
15
8
10
10
11
5
4
2
5
10
12
8
13
6
5
7
6
23
114
117
89
86
98
84
69
70
84
56
67
69
61
48
48
49
42
41
49
48
53
43
34
42
41
35
43
57
26
28
24
33
22
30
22
32
13
28
21
23
19
17
20
18
23
20
13
15
18
16
18
17
15
14
17
20
10
22
9
21
17
16
26
19
12
17
14
15
13
6
15
15
12
16
12
14
14
9
9
13
5
13
7
18
16
9
16
9
8
15
13
18
8
10
9
10
12
6
8
12
10
12
11
13
12
10
16
12
9
14
10
7
13
11
11
12
6
13
11
17
10
6
11
9
10
6
13
1
7
10
11
12
12
10
15
18
11
7
15
15
11
11
11
9
10
8
9
10
13
12
16
15
9
13
3
10
11
5
12
6
9
13
14
10
4
14
8
12
11
6
9
10
9
10
9
10
13
14
16
13
10
14
7
5
8
9
9
8
14
10
9
11
8
11
7
11
10
8
8
13
7
7
12
9
4
8
7
10
6
4
14
17
9
5
15
10
7
9
11
9
14
11
12
12
6
10
5
11
10
8
8
14
12
9
12
9
9
9
8
14
7
6
12
12
13
12
10
8
8
11
10
10
13
8
11
12
8
6
12
10
7
12
13
9
8
7
8
8
12
16
4
7
17
6
9
10
14
7
13
16
16
9
12
8
14
12
10
9
3
6
11
4
14
6
5
4
11
8
7
12
7
13
12
15
5
7
10
13
10
16
10
14
5
9
12
4
11
9
8
9
12
10
14
8
4
7
11
11
15
8
10
6
13
9
0
1
1
3
0
0
2
2
2
4
1
4
4
0
3
3
3
4
2
2
2
1
0
3
1
0
4
3
2
2
2
4
3
2
3
4
0
4
2
3
6
0
2
0
1
3
2
0
2
0
2
3
2
4
2
1
1
3
2
1
3
2
3
2
0
1
1
2
3
2
3
3
3
1
4
3
3
3
2
1
3
1
1
1
1
0
1
1
3
2
1
3
2
1
6
3
2
1
1
1
4
1
3
3
2
6
3
1
1
3
2
2
5
2
6
4
1
2
2
1
4
4
2
2
4
4
2
3
6
1
7
4
2
5
2
4
1
0
2
1
1
2
1
3
2
2
3
1
5
1
0
2
2
1
2
3
4
1
3
4
3
1
4
0
1
1
3
1
3
2
2
1
2
3
4
1
2
2
1
4
1
1
2
4
1
2
4
3
2
3
2
4
1
4
2
3
4
2
5
1
2
1
4
2
4
3
0
1
3
4
2
3
1
3
3
0
2
2
2
2
4
2
2
2
3
3
4
3
2
2
2
1
2
1
3
0
0
1
3
1
1
2
1
1
2
3
1
3
1
4
2
3
1
4
3
1
1
6
3
3
2
2
3
3
1
2
4
3
4
1
6
0
1
5
2
5
2
2
1
2
2
2
0
1
4
3
2
1
2
2
4
4
1
3
1
4
3
4
2
2
2
3
2
4
4
9
59
32
31
33
30
19
25
27
15
26
25
19
43
27
23
19
29
23
27
24
16
15
20
24
21
33
13
27
21
26
17
18
14
20
17
25
20
11
15
11
14
11
20
16
21
10
13
16
14
16
17
10
10
17
15
11
10
16
8
10
13
13
17
15
14
14
15
12
14
14
4
14
11
16
11
6
11
12
13
9
9
16
17
10
18
13
9
9
13
14
11
12
9
12
13
9
10
10
11
17
7
10
11
5
5
10
8
7
10
9
12
15
14
10
9
9
9
13
9
11
17
11
15
8
9
12
11
8
11
9
13
8
11
11
10
11
6
5
15
11
10
9
16
14
11
6
13
7
6
16
9
14
10
11
7
15
8
11
8
6
13
6
4
8
7
7
7
7
5
9
8
7
8
9
4
8
3
3
10
10
4
11
11
15
8
9
12
6
9
7
3
5
4
11
8
10
4
12
11
7
10
14
7
8
9
8
8
10
11
8
6
6
10
4
6
4
8
5
6
7
5
10
12
7
7
4
14
11
3
7
11
8
3
11
8
6
10
14
9
8
5
7
11
8
5
11
12
8
7
10
4
8
13
5
8
5
5
5
8
5
12
9
6
12
8
5
13
6
6
9
9
8
5
15
8
11
4
9
4
8
11
11
11
3
7
5
10
7
6
2
6
11
9
9
4
5
6
4
8
3
10
10
8
6
3
11
6
8
10
8
7
9
7
10
9
10
9
3
9
4
8
10
14
9
8
10
9
4
5
13
8
12
14
73
113
95
94
86
87
90
83
69
72
70
58
63
59
58
51
46
47
48
52
56
42
31
48
23
38
42
34
36
36
38
39
29
24
20
24
29
16
26
20
22
12
24
24
22
11
20
21
22
14
20
17
21
22
19
18
18
11
15
18
8
7
17
13
13
10
14
17
18
9
7
16
10
12
20
15
15
15
14
10
12
10
9
11
13
13
8
6
13
14
15
7
11
13
7
7
12
9
10
15
9
8
13
12
11
13
9
6
9
13
16
15
8
6
10
18
11
13
11
10
17
4
9
15
17
11
8
8
8
15
9
12
12
10
14
10
11
9
8
11
8
9
12
9
10
16
13
13
8
11
11
12
13
7
4
6
10
12
9
11
13
7
13
17
8
6
11
6
11
11
8
9
10
7
12
10
15
22
7
15
7
11
13
10
9
11
10
10
9
5
11
10
9
11
6
10
8
12
11
10
13
11
17
11
17
8
14
10
6
10
6
15
13
14
7
12
13
7
12
13
4
8
9
9
11
13
9
10
13
8
13
11
14
9
13
6
12
10
12
12
7
4
11
13
8
12
11
10
13
9
10
9
8
8
11
12
10
9
8
10
15
14
8
7
10
8
5
8
11
8
8
5
11
12
14
11
13
12
7
11
11
7
6
12
10
14
9
11
10
6
8
8
9
14
5
12
15
15
8
8
11
8
15
14
17
5
11
13
11
15
10
8
8
13
8
7
9
9
9
12
9
11
7
12
9
10
17
11
9
8
9
11
7
3
3
3
1
2
2
2
6
3
6
2
2
0
3
2
0
1
2
2
1
3
0
0
3
2
1
5
1
1
1
2
3
2
3
5
5
1
1
4
0
1
2
2
3
4
2
3
3
3
1
4
1
5
1
1
0
2
0
4
3
2
2
0
2
3
2
0
1
0
5
0
2
3
1
3
1
1
2
3
3
2
3
2
2
4
5
2
2
2
2
0
6
2
0
4
1
2
3
1
0
4
4
4
2
2
4
2
2
2
3
3
3
0
1
0
1
2
1
0
1
0
1
2
3
4
3
4
3
1
2
4
1
1
0
1
1
3
1
4
0
1
4
1
2
1
1
2
0
0
3
0
3
1
2
1
1
4
2
5
0
3
1
4
2
2
1
6
1
2
2
1
1
1
1
5
1
3
1
2
5
2
0
2
2
1
2
3
3
1
0
2
1
3
1
1
4
2
1
1
1
3
2
1
2
2
3
6
0
2
2
2
2
1
3
3
1
1
4
0
2
0
8
2
2
1
2
2
1
1
1
4
3
3
3
6
1
4
3
2
1
1
2
3
4
2
3
0
2
2
3
4
3
2
3
3
2
6
1
3
2
2
0
3
1
3
1
1
1
0
1
2
4
4
1
1
5
5
3
3
2
3
2
7
1
3
2
0
2
2
1
1
1
3
3
2
1
2
3
1
3
1
2
1
5
2
0
6
2
3
4
2
3
4
1
1
3
2
3
3
3
2
2
1
2
0
2
1
2
2
3
2
1
0
1
1
2
1
2
3
0
25
35
32
25
35
31
39
31
23
35
29
30
21
29
29
16
27
23
20
33
25
23
21
13
16
31
17
30
17
17
13
13
18
17
7
10
14
17
20
21
18
17
9
12
14
12
22
18
18
13
14
7
19
14
17
12
14
19
11
13
10
12
16
8
8
11
17
13
8
22
7
11
10
15
7
10
7
13
14
12
11
11
8
12
11
14
8
6
6
10
19
4
14
9
8
14
12
8
10
12
10
7
12
4
11
6
7
11
7
8
6
7
5
15
11
9
7
10
6
5
9
7
3
12
7
12
12
11
6
13
8
8
8
9
5
9
10
5
8
7
14
7
9
6
9
15
4
11
10
7
10
7
4
2
13
10
12
7
9
7
9
9
11
12
4
9
6
5
6
11
7
6
7
5
9
12
8
5
7
8
9
13
9
5
6
8
11
8
6
8
5
7
9
9
6
11
6
8
9
5
4
10
11
6
6
8
7
4
6
7
6
7
10
7
9
8
12
8
7
7
8
3
4
7
12
5
11
6
7
12
13
12
1
8
7
7
5
7
8
6
9
9
9
6
10
4
9
7
10
8
9
4
11
8
6
12
6
6
5
11
11
10
7
6
8
7
7
8
9
8
11
11
8
10
11
9
5
11
10
8
11
8
8
4
6
9
6
13
5
6
4
7
3
10
5
11
5
9
8
8
5
6
5
7
9
14
12
12
8
9
10
6
11
12
8
11
7
9
8
8
8
6
5
4
11
10
8
7
9
11
10
8
7
20
99
97
87
99
85
94
79
83
78
70
68
55
70
49
54
54
49
44
41
37
49
44
36
37
29
41
36
42
30
39
29
32
25
30
44
24
35
33
22
21
23
26
19
14
21
22
17
18
20
16
26
24
21
12
13
23
14
9
20
17
18
18
16
10
12
10
6
10
13
9
11
25
14
16
18
13
10
12
17
10
7
13
8
8
20
10
7
11
7
14
8
18
8
9
14
15
13
10
7
14
8
13
8
10
12
16
9
13
7
12
13
8
11
11
6
5
7
10
10
9
16
13
9
11
12
8
12
14
12
19
11
8
12
9
8
7
12
15
9
9
9
9
11
11
10
11
9
8
13
5
14
8
5
8
10
9
10
18
5
9
8
5
17
9
6
11
8
6
9
13
9
14
8
12
14
15
11
11
7
7
11
9
10
9
5
9
9
10
8
12
12
8
11
10
11
13
7
9
12
9
7
12
6
7
5
7
5
9
5
15
11
8
9
13
7
15
10
11
13
5
10
10
9
13
6
12
12
20
7
15
11
10
10
9
10
7
9
10
7
6
6
13
11
10
17
14
11
11
9
8
7
10
11
5
13
5
8
10
12
13
5
15
7
13
17
11
15
15
13
8
11
9
14
10
11
9
10
12
11
12
12
8
8
7
8
8
11
13
11
10
10
14
9
7
16
5
13
6
8
8
11
11
14
7
11
8
11
14
10
16
10
11
6
11
9
10
7
10
13
7
12
15
13
14
15
12
5
10
14
8
12
7
11
15
1
3
2
7
1
3
1
2
1
4
3
3
3
1
4
0
1
4
1
4
0
6
2
1
1
5
3
2
1
2
5
4
2
4
1
2
1
3
1
0
1
3
2
3
1
2
5
4
2
4
1
1
3
2
3
0
0
2
2
2
2
3
2
5
2
4
1
2
3
1
0
0
3
2
2
3
3
3
1
2
2
3
2
3
4
1
3
4
3
1
2
3
2
3
3
0
1
2
5
1
1
0
3
1
2
2
0
1
1
1
4
3
1
2
0
1
1
0
6
1
3
1
1
0
4
1
3
2
0
5
0
2
3
0
1
4
1
2
4
0
2
0
3
2
0
5
0
1
1
0
2
1
0
1
6
1
3
3
4
0
2
3
2
1
0
2
1
2
2
4
2
5
2
4
3
3
4
2
3
1
2
3
2
2
2
2
0
1
4
0
4
2
1
1
3
1
0
1
1
3
3
4
4
2
1
3
4
6
1
3
3
2
0
0
1
4
1
4
1
3
2
5
2
5
2
0
0
3
1
1
1
1
1
2
3
2
2
0
3
1
2
3
0
3
2
1
4
2
6
1
0
5
0
6
1
1
2
1
3
3
1
1
1
5
2
4
4
0
1
2
3
3
3
2
2
2
2
2
2
0
3
2
0
3
2
3
0
2
2
0
1
4
3
0
3
2
1
2
3
3
1
0
5
1
3
4
1
5
3
4
1
1
2
3
1
3
3
2
4
5
2
3
3
3
4
2
2
0
1
4
1
2
3
0
5
1
6
5
5
1
3
1
3
2
3
2
1
4
5
2
0
1
0
1
5
3
4
2
2
2
1
4
2
3
1
1
1
5
3
1
1
0
21
42
37
32
31
26
22
25
22
23
21
18
24
33
23
28
23
28
28
27
22
21
18
17
15
18
17
23
15
12
19
19
18
26
14
18
17
16
14
22
14
20
22
17
11
15
14
14
11
17
13
19
14
17
9
16
13
14
7
13
11
9
11
17
16
11
15
14
7
11
7
11
11
10
14
10
8
12
8
5
16
8
15
11
7
7
9
18
11
14
12
11
6
12
10
9
11
13
11
13
9
11
4
9
10
15
7
9
6
12
10
7
10
6
6
5
8
6
8
9
17
3
8
9
8
8
10
11
7
8
13
8
9
6
9
2
10
6
8
6
13
13
8
12
7
10
8
10
5
6
3
15
6
6
8
12
12
7
8
10
11
9
9
11
7
11
5
6
6
10
12
11
8
11
10
9
9
3
13
4
12
5
10
7
10
5
8
5
7
8
7
6
9
11
12
11
8
8
9
7
7
10
6
12
10
9
4
9
7
14
11
7
12
5
7
5
16
6
7
10
12
8
8
9
7
7
6
7
8
9
14
7
15
11
6
8
9
8
9
12
6
8
8
3
9
7
6
11
9
9
10
7
10
7
4
7
12
6
8
6
7
15
7
13
3
8
7
8
6
4
8
7
8
12
3
12
4
8
7
12
4
8
8
12
8
8
6
7
3
9
7
7
7
5
6
12
7
12
6
10
9
5
10
11
7
8
9
5
10
7
5
5
7
6
11
14
6
10
10
9
11
5
13
7
10
12
5
10
9
10
11
4
7
14
86
136
81
85
86
91
82
76
73
69
71
60
58
48
55
61
62
48
45
34
50
30
32
39
33
25
43
33
32
35
38
25
34
26
21
28
20
37
28
22
28
14
20
18
21
20
28
18
21
20
23
16
11
19
18
14
6
14
19
18
11
13
9
16
19
15
9
10
20
13
9
12
9
15
11
17
14
6
14
14
13
9
7
12
19
13
10
11
9
14
13
9
11
15
11
13
11
4
5
10
13
13
10
15
9
12
16
12
15
13
8
10
16
10
10
15
8
10
12
6
14
5
15
16
15
9
18
11
10
9
6
12
10
10
5
12
8
9
18
13
4
15
13
10
10
10
11
11
9
17
8
8
10
10
16
10
14
9
8
10
11
11
6
9
16
12
8
7
4
10
16
11
15
10
7
11
12
9
11
10
9
6
8
8
7
13
11
8
11
8
9
6
6
9
9
7
10
11
10
17
13
6
13
9
15
9
12
8
6
9
15
8
10
16
7
15
4
12
8
9
5
12
11
10
9
10
10
10
10
17
7
8
8
9
10
14
15
6
11
11
7
8
11
13
11
10
7
12
15
9
6
9
17
9
10
12
5
16
11
15
13
15
11
12
8
10
10
6
12
15
13
9
8
6
9
6
14
8
11
11
10
10
13
11
15
11
6
8
9
8
7
15
11
8
9
15
11
7
10
9
14
14
17
8
6
15
6
13
10
13
17
8
6
8
13
11
9
7
9
18
8
8
9
11
14
8
10
9
12
7
10
14
9
3
1
5
3
1
2
0
2
7
2
1
1
5
2
3
1
1
1
1
4
2
2
3
3
3
3
3
2
5
5
0
1
3
1
4
3
1
0
4
4
3
0
5
1
0
3
2
5
2
2
0
3
3
3
1
3
0
3
1
6
1
0
1
1
2
2
4
2
2
1
2
1
2
4
0
4
3
1
1
5
3
0
0
4
0
5
3
4
3
2
4
2
3
1
4
1
0
3
3
0
1
0
2
3
3
5
1
1
3
1
2
3
1
3
2
0
2
1
2
1
3
1
4
1
2
0
2
1
3
1
5
1
2
2
4
3
0
3
1
2
2
2
6
2
1
5
1
2
1
2
0
1
4
2
2
4
1
4
3
2
1
3
1
2
3
2
1
1
3
5
1
1
3
4
3
3
1
1
1
2
2
2
1
3
0
2
1
2
1
4
2
3
3
3
2
1
2
1
2
1
4
3
6
0
1
2
3
4
3
0
2
2
1
4
3
4
4
3
1
1
1
2
3
5
1
5
3
4
4
4
0
6
2
5
3
3
3
3
0
3
1
1
1
2
3
1
1
1
4
2
0
3
4
1
5
1
2
1
2
3
0
5
2
2
0
1
1
5
3
1
2
3
2
2
2
4
0
2
3
2
1
1
1
2
3
3
1
1
1
2
1
1
0
3
1
4
2
1
2
2
5
3
4
4
0
1
2
4
4
3
2
1
2
5
1
2
2
3
2
3
2
1
4
1
2
2
3
4
3
4
3
4
4
3
1
1
0
2
4
3
1
3
2
3
3
3
2
1
3
2
6
1
3
1
2
1
4
3
3
2
0
1
2
1
1
5
0
4
1
1
2
3
4
5
6
3
1
3
2
5
4
1
3
3
2
2
4
4
0
5
1
5
4
6
3
1
2
1
2
0
1
1
5
4
3
0
9
35
30
36
31
23
28
22
31
19
29
28
21
21
28
22
16
19
19
18
18
25
17
17
20
21
19
20
19
19
16
12
19
18
19
18
22
14
16
13
10
14
13
21
14
6
16
19
12
18
10
13
7
14
14
10
12
16
10
12
13
13
13
10
10
13
14
5
9
10
14
12
16
12
17
7
8
8
9
13
16
7
16
8
11
12
8
6
9
16
8
12
9
11
12
11
12
9
10
9
14
6
13
14
9
11
9
12
6
8
12
11
8
12
5
9
9
18
3
12
5
6
10
5
10
9
11
11
4
7
7
12
11
9
15
13
7
6
12
11
14
7
7
12
9
7
8
7
12
4
7
8
10
7
9
7
8
8
8
8
7
5
5
9
10
4
13
14
10
10
14
10
11
10
10
8
9
10
7
15
9
7
8
6
6
7
15
9
10
6
11
7
6
7
6
16
13
12
10
4
11
7
9
11
8
11
7
8
7
18
12
11
12
8
5
5
12
11
3
10
13
2
11
5
10
6
3
10
9
6
3
8
5
11
8
8
9
7
15
8
9
10
11
10
15
9
7
12
3
3
8
10
8
9
5
7
11
15
10
10
6
8
9
7
6
7
10
13
4
10
4
15
6
7
7
9
12
13
5
9
5
9
6
8
11
8
11
15
6
12
11
6
7
8
7
8
4
12
5
6
13
7
14
7
7
7
14
10
14
7
11
10
12
10
13
7
7
5
9
7
5
3
9
8
9
8
14
9
9
4
5
10
9
10
68
119
93
94
97
67
87
66
53
72
63
67
73
59
59
55
57
57
55
55
32
36
28
37
36
41
41
27
31
34
26
29
40
23
26
29
33
32
32
24
21
25
15
25
10
24
14
23
16
20
17
22
20
14
17
15
12
18
12
20
15
15
18
11
9
14
13
11
14
6
7
12
12
17
17
13
15
7
14
13
18
11
14
12
13
14
15
13
11
11
7
10
5
13
8
5
12
13
13
9
12
12
15
6
7
6
12
5
4
8
7
9
10
6
10
9
14
13
6
10
13
15
6
14
11
10
10
12
11
7
17
11
14
11
13
9
11
4
9
11
7
13
9
3
4
12
8
7
9
4
7
13
12
8
14
14
9
7
11
7
9
7
9
12
9
9
8
14
12
8
14
10
8
9
5
8
4
7
7
5
7
14
9
18
12
5
6
15
7
6
6
16
11
13
8
15
11
14
9
9
12
13
10
5
9
14
8
13
11
9
11
9
6
12
12
11
13
11
10
14
18
13
10
9
3
9
14
11
15
14
15
14
5
17
10
9
9
9
13
13
4
7
15
8
13
8
16
11
11
11
8
5
14
6
8
12
10
5
12
6
13
11
13
8
12
6
14
6
11
13
13
8
14
9
16
12
11
11
15
7
14
13
13
11
6
7
8
6
8
9
7
3
13
6
11
10
11
8
6
11
4
10
15
7
15
20
5
13
5
12
9
9
15
15
9
5
6
8
7
8
6
13
12
6
12
5
11
8
8
5
7
9
12
6
1
3
4
2
2
2
2
2
3
2
1
1
3
1
4
0
4
2
2
0
1
1
0
1
3
2
3
3
3
1
3
4
2
1
6
2
0
3
3
2
0
2
2
3
5
2
2
2
1
1
1
0
4
0
5
2
4
4
2
3
3
2
6
2
1
1
2
2
2
1
1
2
5
5
2
5
3
2
1
2
4
1
2
1
3
4
0
2
0
2
1
2
2
3
1
0
1
2
0
4
5
2
2
3
1
2
0
1
0
2
4
2
2
4
4
3
0
3
3
2
4
4
0
3
4
4
1
1
2
4
2
4
2
3
3
0
3
3
3
3
0
1
0
5
2
5
1
2
1
1
2
2
3
0
3
1
1
2
1
2
1
3
2
2
2
2
3
1
5
1
3
0
3
3
3
2
4
3
2
1
4
3
1
2
1
0
0
1
5
3
2
2
4
1
0
3
1
2
3
2
3
5
3
2
2
1
1
6
0
1
4
1
2
5
0
1
1
3
4
2
4
2
2
3
5
4
3
4
2
3
1
2
2
4
4
4
1
4
2
3
2
3
4
3
0
1
3
1
0
2
3
2
1
5
2
4
2
1
1
2
4
4
3
2
1
2
3
3
3
3
3
3
4
2
3
3
1
2
0
3
3
1
3
3
2
1
2
4
2
0
4
3
1
5
2
5
4
3
1
1
1
1
0
0
2
1
3
0
3
3
1
1
1
3
4
3
3
3
0
2
0
0
0
4
3
1
3
1
2
1
2
2
2
3
0
1
4
1
1
3
2
6
1
2
6
4
2
1
3
4
2
2
2
2
0
3
2
0
1
4
1
3
6
0
1
1
2
3
1
4
1
3
3
1
5
4
3
1
2
1
4
0
0
4
3
3
4
3
2
1
3
2
1
2
2
2
3
2
3
2
2
2
1
2
5
1
2
3
3
3
3
4
1
0
3
3
3
3
5
2
2
4
2
1
2
3
4
2
4
1
1
0
4
1
2
1
3
1
1
20
40
38
40
33
24
33
28
36
26
24
27
19
22
19
19
16
19
22
24
20
24
21
22
20
14
22
25
26
14
16
22
19
23
16
19
8
13
14
14
21
24
13
17
13
19
16
10
15
15
12
18
10
14
10
17
18
10
17
17
20
11
7
8
10
13
14
11
10
13
7
7
8
16
3
10
7
11
14
10
11
6
11
9
11
12
9
13
14
4
8
11
14
5
6
11
9
15
7
10
14
9
6
12
9
4
8
16
4
9
11
17
11
9
8
8
11
6
9
10
9
9
9
10
6
9
11
12
11
6
14
15
5
5
10
10
8
12
8
10
4
16
10
10
9
9
6
14
9
10
4
7
9
7
9
13
9
6
9
7
7
6
7
4
6
10
8
12
10
2
4
3
9
9
11
7
5
10
7
8
7
9
7
11
10
6
11
9
11
5
9
9
8
7
6
10
8
16
5
8
6
9
5
7
14
7
7
5
8
6
10
13
9
7
12
8
4
7
9
4
6
9
14
5
4
6
6
16
8
16
6
5
6
5
6
8
9
11
5
6
9
9
13
7
13
3
9
8
7
4
9
8
5
8
10
10
8
8
4
5
6
5
8
13
7
7
7
4
9
12
12
9
8
3
8
5
6
8
10
5
5
12
9
7
6
8
6
6
9
14
11
7
8
6
7
13
4
7
5
9
8
10
8
9
12
5
9
6
11
8
4
10
11
11
7
2
10
10
7
10
7
5
14
6
6
8
8
6
5
7
9
8
11
17
86
93
100
87
70
89
78
70
70
75
62
48
65
47
51
43
57
56
45
48
45
41
31
26
23
36
27
37
40
25
28
29
27
33
35
35
24
19
28
27
25
24
17
35
19
27
18
26
21
23
20
14
19
13
15
12
16
21
16
16
21
22
17
13
13
11
23
10
16
15
11
16
13
11
10
11
12
13
15
9
9
10
13
15
22
21
14
13
17
11
14
7
7
10
17
13
10
9
15
11
13
11
9
8
5
6
9
10
10
7
13
7
13
4
15
11
10
10
6
14
16
7
10
13
15
10
10
12
9
14
11
12
11
8
7
19
11
6
9
10
19
8
9
11
7
8
11
13
7
7
9
3
9
8
9
14
5
7
14
11
15
8
6
8
8
8
2
12
12
10
6
8
3
8
11
15
12
8
9
10
14
15
10
7
8
5
8
17
11
6
8
7
12
12
10
12
10
15
9
8
15
5
5
11
13
7
9
2
13
6
7
14
15
13
10
7
10
11
6
9
8
2
14
17
11
8
7
12
9
6
9
7
10
12
11
7
8
15
9
6
5
9
8
8
11
11
6
7
10
12
12
12
11
9
11
10
14
16
11
12
12
9
15
4
7
15
10
12
11
12
10
10
12
19
12
4
12
11
8
14
9
7
9
7
7
13
19
9
7
13
17
15
9
8
12
5
10
7
6
12
11
14
8
12
9
10
8
15
11
15
7
4
11
10
10
12
6
14
9
10
11
11
9
5
11
6
7
11
12
9
8
13
11
3
3
2
3
3
6
0
3
1
0
4
1
2
4
0
2
5
1
2
5
2
5
0
0
5
1
1
3
3
3
1
3
0
1
4
3
3
2
1
3
3
7
2
0
2
0
2
2
4
1
0
0
2
4
4
3
2
0
2
4
2
2
2
3
5
2
2
3
1
2
1
1
2
3
1
1
1
4
0
1
1
2
1
0
0
3
0
1
2
3
2
2
3
2
1
2
1
2
3
3
4
1
4
0
0
1
4
3
3
4
1
2
4
2
1
3
4
1
5
2
1
2
2
0
4
0
3
6
2
3
1
1
1
5
2
1
2
1
2
5
3
1
2
2
3
1
7
0
0
2
2
1
2
3
2
2
1
2
2
2
3
1
1
0
0
3
3
5
2
5
5
2
2
2
0
1
3
3
1
5
7
1
1
5
4
2
2
1
4
1
3
5
4
0
1
1
2
3
0
3
4
1
1
3
1
3
2
5
1
1
4
2
4
1
3
3
4
2
1
3
0
1
1
4
5
1
3
5
3
4
1
1
1
2
1
2
4
1
1
2
0
3
4
3
3
0
3
2
1
2
2
2
1
1
2
5
1
0
4
3
2
2
4
0
0
3
2
1
3
3
2
1
3
5
5
3
2
3
5
4
3
2
2
2
1
4
3
1
1
2
3
2
1
3
0
0
1
5
0
3
2
2
1
1
4
1
0
0
3
5
2
4
1
3
1
2
3
2
4
1
1
2
2
2
3
2
3
0
6
3
0
0
3
3
1
1
1
4
1
1
3
3
5
4
3
4
3
5
1
1
1
2
4
1
7
3
5
6
1
3
2
2
3
4
1
3
4
2
4
0
2
1
5
2
2
1
2
1
3
4
3
3
2
2
1
3
1
1
2
2
0
1
0
3
2
4
1
1
1
1
2
5
0
3
1
3
3
5
3
2
0
1
3
1
3
1
2
2
1
2
2
5
1
4
1
0
3
3
3
1
2
0
3
1
3
7
1
2
4
0
3
0
0
3
2
1
3
1
3
2
3
2
6
3
4
2
5
3
2
1
1
1
2
1
3
3
0
3
1
3
0
0
1
19
30
32
28
23
26
32
32
32
25
29
19
31
24
26
26
16
21
18
17
13
17
21
17
18
12
18
14
23
22
13
21
11
15
25
13
15
18
16
16
10
16
19
18
19
15
14
12
9
16
14
17
16
13
20
17
9
10
10
14
8
21
8
6
8
11
15
12
12
7
9
14
9
18
14
10
11
9
19
6
11
7
11
17
12
9
8
12
14
12
11
6
10
12
11
11
8
12
4
7
8
10
12
7
12
6
6
10
6
9
8
5
5
10
8
8
9
6
10
15
10
16
7
8
7
9
14
12
11
12
10
10
10
9
8
6
9
10
15
12
8
15
12
11
19
7
9
13
5
10
4
13
10
9
9
11
5
9
8
15
5
7
7
6
11
9
9
8
9
4
8
6
7
5
7
10
9
11
8
9
8
7
9
9
14
11
12
6
7
10
14
12
6
3
10
9
10
8
6
6
5
8
6
6
8
9
11
11
7
6
8
11
7
12
10
6
6
11
4
3
9
7
13
6
8
3
6
5
7
7
8
8
10
13
4
13
6
14
8
15
5
12
11
11
8
6
3
9
14
8
10
10
13
9
11
10
4
7
7
3
8
15
12
6
8
7
10
11
10
3
7
8
12
9
8
6
6
7
7
8
6
9
12
8
12
7
8
4
7
10
9
9
3
7
8
16
3
10
7
11
4
5
8
5
9
5
11
9
7
11
8
6
3
7
11
14
5
7
5
3
4
7
16
9
6
5
4
15
8
8
7
5
8
9
111
110
85
82
81
74
80
69
81
81
63
62
45
57
73
51
52
56
55
50
56
46
45
40
46
45
38
25
33
33
27
29
29
29
20
33
27
23
24
17
17
27
23
21
19
20
17
13
12
18
17
15
18
8
19
20
20
20
7
15
15
11
14
11
14
16
15
11
13
20
14
11
15
10
10
25
12
14
7
17
11
11
14
4
10
9
12
16
13
8
10
9
8
7
11
8
16
14
13
11
9
12
16
10
10
12
3
10
9
8
12
12
9
3
7
12
7
13
10
10
8
11
5
10
14
10
15
2
14
17
14
15
6
8
10
13
6
6
9
8
10
12
15
9
9
11
12
8
17
12
11
8
8
11
6
13
9
13
12
5
12
9
11
9
10
12
8
8
6
10
6
6
11
8
11
7
9
3
14
14
13
8
9
12
11
8
8
10
19
9
11
9
6
10
9
9
14
10
11
14
11
5
5
5
9
7
7
11
5
12
7
7
12
15
12
10
7
8
5
21
10
11
9
8
12
8
12
14
9
10
18
12
11
9
6
13
12
10
11
10
11
17
11
7
6
11
10
9
5
8
11
14
6
15
10
9
9
5
11
11
4
11
13
7
8
8
11
13
13
10
11
13
13
12
11
11
16
8
11
10
11
6
9
11
16
9
9
12
8
11
6
10
10
5
6
12
14
9
6
15
15
8
6
9
11
10
17
9
16
8
7
10
9
15
8
12
11
10
10
9
8
10
8
14
16
16
9
11
8
7
11
8
11
6
2
5
1
0
2
3
2
4
3
6
2
4
2
2
0
4
1
2
2
1
0
5
4
3
2
2
3
2
4
2
2
1
1
0
3
5
0
1
1
1
2
5
1
5
1
3
4
2
2
4
1
3
2
4
3
1
4
3
2
4
2
4
1
4
5
1
1
2
3
2
2
1
1
1
3
3
2
3
1
4
1
3
3
2
2
3
2
2
2
6
0
2
3
0
3
2
5
2
1
3
1
2
3
1
1
3
1
2
1
3
4
3
3
3
1
1
4
1
2
1
1
5
2
2
2
1
1
0
0
2
2
3
4
1
3
3
0
1
3
3
1
0
1
2
2
2
4
1
4
5
7
3
7
2
2
5
3
2
2
2
4
4
1
5
2
0
1
1
3
3
2
2
3
4
1
3
3
0
2
1
5
2
0
2
3
0
3
3
1
1
0
4
2
2
1
3
1
1
3
4
5
1
2
2
2
5
0
0
2
4
4
3
3
1
1
1
0
2
1
3
5
1
8
3
1
4
2
2
3
1
1
2
0
4
0
2
4
2
2
6
0
3
2
0
2
1
3
1
3
3
5
0
1
2
4
1
2
6
2
2
1
1
2
0
4
3
3
0
1
3
1
1
3
2
1
1
3
2
2
2
2
2
0
2
1
1
3
1
3
4
5
1
3
3
3
3
4
3
4
2
4
2
4
0
2
3
1
4
0
2
2
2
2
5
4
5
4
1
2
1
5
3
2
2
5
2
4
2
2
4
3
1
2
2
1
3
3
4
1
0
3
6
1
4
4
1
3
3
2
3
1
1
1
4
0
1
3
2
1
2
4
2
1
0
3
2
1
2
3
0
0
2
0
2
6
4
1
3
0
0
4
1
5
2
3
3
5
1
3
1
2
1
0
3
0
1
0
3
2
5
1
2
2
2
3
0
4
0
2
5
1
3
6
5
1
3
6
3
1
0
2
3
5
3
1
1
3
6
2
1
2
4
0
3
1
1
4
3
3
4
2
2
4
6
2
4
3
6
1
4
0
2
1
0
3
1
4
0
2
3
1
3
5
2
3
3
3
5
2
1
3
1
0
3
1
3
4
1
2
2
3
2
4
1
4
0
2
4
4
1
2
1
5
0
5
2
0
5
1
3
5
2
1
1
6
5
38
39
17
25
24
38
25
32
26
16
28
22
24
21
34
28
14
22
28
20
19
16
22
21
21
17
26
21
17
15
14
18
17
20
9
16
18
16
19
16
20
17
15
11
15
13
14
17
13
16
7
19
15
8
10
11
12
10
14
23
10
3
11
18
14
5
6
8
12
11
18
10
5
8
16
10
9
17
11
10
11
11
5
8
11
5
12
11
9
7
14
13
14
12
7
10
9
16
8
7
4
11
10
8
8
12
12
8
9
7
16
10
10
9
9
4
6
10
8
6
3
7
8
11
6
6
11
8
7
6
4
7
10
5
12
8
7
7
4
12
5
6
8
10
8
6
11
10
4
8
11
13
16
10
12
6
7
16
7
10
9
9
13
10
4
14
11
6
12
12
5
9
8
9
5
9
14
7
11
6
8
8
11
7
11
6
7
5
7
8
7
8
9
8
7
6
7
7
9
9
8
9
14
10
10
9
10
6
8
6
8
9
9
12
8
6
8
12
4
5
8
5
5
8
10
13
8
10
8
9
7
13
7
13
6
4
13
7
8
5
12
3
11
2
8
12
6
6
12
10
12
8
10
8
10
8
8
10
7
7
8
6
7
8
3
6
7
13
16
8
10
9
2
9
10
10
7
7
9
13
6
13
11
13
12
8
7
8
15
8
12
6
12
5
6
8
9
8
7
14
8
9
2
9
6
14
5
10
9
9
9
12
11
10
9
10
9
9
4
6
7
15
8
10
7
6
5
12
11
7
8
11
3
84
116
89
95
90
89
65
86
73
64
72
71
66
63
72
60
72
49
38
57
43
31
45
38
38
50
41
36
38
37
40
22
23
32
24
26
22
17
21
29
24
25
26
22
28
21
15
18
21
22
23
17
15
19
16
19
11
17
17
19
20
14
10
10
16
11
13
16
11
14
16
11
10
11
10
12
10
12
10
5
6
10
12
12
11
12
4
9
18
14
12
9
11
9
8
16
9
10
9
14
13
12
10
9
13
12
8
14
7
10
10
18
4
12
14
18
11
14
16
8
10
14
13
13
11
11
9
15
10
11
18
14
4
13
14
11
8
11
12
12
13
9
11
12
12
9
12
3
9
7
7
9
12
6
11
12
10
6
10
15
11
11
10
15
15
8
12
11
10
8
10
11
11
13
11
5
5
15
10
12
10
12
11
14
9
13
14
6
12
14
11
9
12
5
9
8
8
11
13
11
10
19
11
10
8
8
7
14
7
6
7
11
17
8
9
13
14
11
11
11
13
12
14
12
9
13
5
10
9
10
10
14
13
13
8
8
8
9
9
8
11
13
7
8
18
10
13
5
7
12
11
11
12
12
17
10
5
14
7
10
13
7
7
8
11
13
9
11
9
11
12
17
16
9
12
10
5
4
8
11
5
10
8
7
11
8
8
11
10
12
15
7
9
12
15
12
7
6
8
12
14
6
9
9
8
12
12
9
3
6
8
15
11
8
7
7
9
7
12
13
6
9
10
8
6
12
8
11
11
7
10
10
14
3
5
4
2
2
0
2
5
4
1
3
4
4
2
2
1
1
1
3
6
3
3
3
3
2
4
8
4
3
2
1
5
1
4
2
5
2
2
1
3
1
2
0
3
0
4
4
2
1
4
1
2
2
3
1
1
2
0
1
2
2
2
2
4
2
1
1
2
1
0
3
0
3
2
2
2
3
2
2
1
1
0
3
2
2
1
3
4
4
2
3
6
3
4
4
1
1
2
2
5
3
6
2
1
1
0
1
2
0
4
1
2
4
2
0
4
1
2
2
1
7
2
2
2
0
4
0
2
6
4
1
5
1
2
1
1
3
2
7
2
5
1
0
2
1
3
3
1
3
3
6
1
1
5
4
2
4
4
5
3
2
2
1
0
4
3
3
2
3
1
6
0
2
1
1
2
2
2
2
2
2
2
1
1
3
2
2
5
3
1
0
2
3
1
2
4
1
2
3
5
1
2
1
0
0
1
2
2
2
3
1
3
2
1
4
1
1
1
2
5
3
1
5
3
2
2
1
1
1
3
3
1
2
2
2
0
0
1
1
3
6
5
3
3
2
0
1
1
4
1
2
1
1
3
4
1
1
1
3
2
2
1
2
2
1
1
0
2
4
2
1
3
3
4
4
3
2
2
3
2
1
3
0
2
1
3
1
2
1
0
2
1
3
3
1
1
5
1
4
1
2
1
2
3
2
4
9
7
3
1
1
3
0
4
3
5
2
2
1
0
4
5
2
3
2
2
3
1
2
4
2
2
3
0
1
3
1
4
0
2
1
3
2
3
1
2
1
4
2
1
3
1
2
3
2
3
1
5
3
4
2
5
3
3
1
4
3
3
3
2
0
4
4
3
1
1
3
2
2
1
3
4
1
0
6
5
3
1
4
1
3
1
3
1
2
1
0
4
0
3
2
4
1
4
0
3
0
2
4
7
3
2
4
2
6
2
1
4
3
5
1
1
2
1
3
1
2
5
5
3
3
3
1
3
2
2
2
3
7
5
1
1
3
1
4
3
3
0
1
1
2
1
1
2
4
2
0
2
0
1
1
2
3
4
3
2
5
2
5
4
1
1
3
0
0
0
2
1
2
2
4
0
2
1
2
2
0
1
1
1
7
2
1
0
2
2
3
1
3
1
3
1
2
4
3
3
0
2
3
1
2
4
2
1
2
5
4
3
3
3
0
2
2
1
3
1
2
1
1
3
7
4
2
2
5
3
1
2
0
4
28
30
28
33
44
33
29
29
26
25
27
23
22
26
21
22
26
20
26
22
18
16
17
25
17
16
18
21
19
25
21
13
18
18
15
22
13
17
20
19
14
16
12
18
11
12
16
12
10
10
14
10
8
10
19
10
8
11
9
13
15
16
14
10
13
6
11
9
14
8
18
13
13
16
12
9
16
8
6
12
10
7
7
7
14
8
14
8
14
9
9
8
7
9
8
9
10
10
9
7
9
11
5
16
12
6
5
8
8
6
11
7
10
6
11
6
10
13
6
6
6
9
15
8
12
15
6
8
8
6
5
11
8
10
7
8
7
7
6
8
8
8
7
6
9
6
6
8
7
8
7
5
8
10
6
10
5
9
11
10
10
13
7
9
7
6
10
6
5
6
10
7
9
10
7
7
13
14
9
11
4
8
7
6
8
11
8
7
8
9
4
13
4
8
8
11
6
7
9
3
5
8
9
6
15
9
10
12
11
11
6
10
8
10
7
5
10
6
10
5
7
5
6
5
6
9
7
7
6
8
9
6
7
6
3
11
9
9
11
9
10
9
15
12
7
13
12
8
7
6
6
6
15
7
8
10
6
10
9
10
9
7
5
5
7
6
9
14
11
10
4
7
5
8
11
11
5
13
14
13
5
8
10
6
4
11
4
6
12
11
14
9
7
10
7
11
5
3
8
7
11
12
3
7
9
16
10
10
9
6
4
9
10
8
9
9
11
11
4
7
9
5
9
5
8
4
9
3
3
5
14
12
7
18
102
105
87
109
95
78
85
74
83
68
58
73
67
61
60
51
57
57
59
38
44
43
44
28
45
37
39
22
33
29
23
23
22
32
32
26
18
24
28
24
13
25
21
25
21
13
20
19
25
20
22
14
12
14
19
17
19
13
17
15
16
14
16
17
14
15
12
21
15
18
9
8
8
16
20
10
16
15
14
16
11
12
9
17
10
14
11
14
14
11
11
12
10
10
11
15
15
9
15
12
9
9
7
11
5
10
13
9
14
16
14
13
10
13
19
12
9
9
5
12
7
10
7
5
6
12
16
7
14
7
11
11
11
11
8
11
12
12
15
15
5
11
8
17
10
7
8
11
11
11
10
9
8
14
12
6
11
16
4
10
8
13
6
10
8
12
7
7
13
8
6
8
8
16
7
4
7
13
11
11
5
9
12
6
14
5
8
9
11
6
9
8
6
9
12
9
12
7
10
12
9
5
6
10
14
14
12
10
8
7
13
11
12
11
10
9
9
9
14
7
9
6
8
13
12
8
11
7
5
9
10
14
6
10
7
7
14
8
11
6
7
8
11
12
12
8
9
12
7
12
11
6
7
13
13
10
10
10
18
13
14
7
7
10
15
5
8
8
8
7
14
7
10
13
7
13
10
12
6
9
6
9
6
10
7
16
13
9
9
7
9
13
11
7
11
6
12
8
10
15
10
9
13
12
6
9
11
17
7
9
8
3
9
5
10
16
8
13
10
12
14
6
4
7
11
10
12
11
15
6
9
10
6
3
8
6
3
2
3
0
1
1
1
1
5
2
1
2
5
1
4
0
2
3
2
2
2
2
3
0
3
4
2
3
7
2
1
2
0
2
7
1
1
1
2
3
2
3
4
3
2
0
1
2
3
4
5
1
3
0
1
2
2
3
2
2
5
1
3
3
0
1
5
1
3
4
2
0
4
1
3
1
1
1
2
1
2
2
5
5
4
1
2
1
3
2
2
2
1
0
5
3
2
1
4
3
2
2
2
2
1
4
1
1
4
3
1
4
3
2
1
0
2
2
1
0
1
2
4
4
4
3
4
5
4
3
1
2
1
2
2
2
1
1
2
4
2
1
1
3
2
1
2
5
2
3
1
1
5
3
2
2
2
3
0
3
1
0
0
0
1
3
2
2
0
1
2
3
1
4
4
0
2
2
2
6
4
4
5
3
2
1
0
1
2
4
1
8
2
5
3
1
1
1
1
3
4
1
0
4
2
1
3
0
2
0
1
1
4
4
2
1
2
0
2
3
0
1
3
4
2
1
0
3
2
2
2
2
1
5
3
1
1
1
2
4
4
4
1
0
2
4
1
2
1
5
2
2
3
1
3
2
2
4
1
2
0
0
2
0
5
1
3
2
3
2
0
2
4
2
5
2
4
0
2
5
2
3
2
3
1
3
4
0
0
2
0
4
4
6
2
5
3
3
4
2
3
3
2
2
4
2
1
0
3
1
4
4
1
1
4
1
3
1
2
5
1
1
3
2
1
2
3
0
3
1
4
0
3
7
6
1
4
2
1
6
5
1
4
2
1
3
0
2
2
5
4
2
6
3
0
3
4
3
6
4
1
0
6
4
4
1
2
1
3
2
4
3
2
0
3
2
4
5
3
3
4
3
0
1
1
3
2
3
2
2
2
2
3
0
2
0
2
2
1
4
2
3
3
4
1
4
2
1
1
0
5
4
2
2
2
0
2
2
5
5
4
4
1
1
3
5
6
3
4
1
0
3
3
3
1
2
1
3
1
6
3
2
0
4
2
2
1
0
3
2
3
7
0
4
3
3
2
1
0
0
3
3
1
3
6
5
0
2
3
5
1
5
2
3
6
3
1
1
2
1
2
4
3
3
3
3
0
2
2
3
3
2
3
3
5
1
2
4
3
3
1
3
0
0
4
4
2
1
2
1
2
1
4
1
2
1
6
2
3
0
7
2
3
1
2
3
1
1
1
2
0
4
0
1
2
0
3
1
1
7
3
2
2
1
2
3
0
4
3
4
3
2
2
0
0
6
1
1
4
3
4
3
1
1
1
4
5
5
3
0
20
28
34
30
21
30
25
20
39
24
23
22
20
22
28
22
26
25
19
13
19
20
16
15
33
13
19
18
18
18
25
18
17
15
6
15
16
9
11
14
18
9
17
20
12
13
11
11
11
12
17
17
15
17
10
9
15
7
18
11
14
15
22
16
11
11
14
15
10
11
11
10
9
9
6
11
15
15
12
10
6
5
10
13
9
8
9
10
6
12
8
10
6
12
8
7
11
9
14
7
10
4
8
8
14
8
11
12
7
14
11
6
10
7
5
8
13
8
9
11
8
7
4
9
12
10
4
5
8
6
9
15
5
12
8
6
5
8
9
6
7
7
5
17
7
4
3
14
9
10
7
9
11
6
4
7
11
7
6
8
11
15
6
6
11
11
6
6
10
9
13
6
13
12
10
10
9
12
13
7
11
11
3
7
6
4
10
5
8
6
7
7
8
7
11
7
10
8
6
8
9
11
8
13
3
11
9
11
7
6
9
4
12
7
6
8
15
4
7
9
10
10
7
16
2
6
13
8
7
4
8
7
11
9
5
5
11
11
7
14
4
11
9
5
8
11
10
8
6
5
10
8
8
7
7
9
11
4
12
8
5
14
8
12
7
7
13
7
4
4
11
7
7
8
8
9
8
8
2
11
6
12
8
5
5
14
10
7
9
5
6
11
8
6
8
5
12
3
9
10
10
6
8
7
8
5
9
6
7
8
13
9
8
6
10
10
4
12
4
7
8
11
10
9
12
10
5
16
6
9
9
9
13
14
116
120
76
103
71
86
72
67
78
81
68
53
59
59
53
60
48
37
44
44
32
53
42
53
42
32
45
33
37
30
39
36
35
28
25
16
28
39
28
18
22
16
20
23
25
22
23
23
17
12
17
19
15
18
15
12
18
12
12
12
20
16
13
21
17
20
20
17
14
11
16
15
15
10
20
17
10
11
23
15
11
13
12
10
5
13
4
12
13
11
7
11
11
14
14
11
16
9
13
6
11
13
9
9
19
18
10
16
10
9
11
12
13
11
5
9
8
16
10
14
8
11
9
14
11
7
6
13
7
9
12
4
9
11
11
10
13
12
5
8
11
11
18
12
11
6
13
12
12
14
8
9
6
7
12
11
11
4
9
14
13
10
5
17
10
11
12
10
10
8
11
10
7
10
6
9
7
16
13
3
5
6
9
12
13
10
6
15
8
8
12
11
10
8
7
9
12
11
10
9
10
9
11
13
16
8
7
14
11
7
7
14
12
6
15
8
7
10
10
5
10
7
18
7
6
8
11
7
6
10
18
10
14
6
10
13
7
7
6
13
14
13
9
4
17
4
7
8
13
8
7
8
15
11
7
4
5
9
10
12
10
9
14
7
5
9
8
12
11
13
13
9
4
9
10
20
10
10
8
10
9
7
7
10
11
11
11
12
7
12
9
15
11
10
15
15
14
7
8
13
7
11
11
5
7
7
10
11
11
12
8
10
7
8
10
14
11
10
4
4
16
10
9
13
9
13
5
8
3
3
8
11
6
3
2
3
3
1
3
3
1
2
6
0
1
5
5
4
2
1
2
2
3
2
2
1
3
1
1
1
3
4
3
3
6
3
2
3
3
2
3
1
3
0
0
0
2
1
1
2
1
2
2
2
1
1
3
2
1
1
1
4
2
4
2
2
1
2
5
0
3
3
2
4
0
0
1
3
5
3
2
3
0
4
2
2
0
1
2
2
1
2
3
3
4
2
4
3
0
3
0
2
3
3
6
2
2
2
4
0
3
2
4
1
2
1
2
5
4
2
3
3
2
2
1
2
2
0
2
1
1
1
2
2
1
1
1
4
5
1
3
4
3
2
2
1
2
0
3
0
0
1
3
2
2
0
1
3
2
0
1
2
1
1
2
6
2
3
1
1
4
1
3
1
1
2
0
2
1
2
3
3
0
0
5
0
0
4
3
2
2
0
4
2
6
1
3
3
2
3
1
2
2
2
1
4
0
2
4
3
3
1
1
2
2
2
0
0
2
1
3
2
1
3
3
2
1
5
4
2
3
1
2
2
0
2
2
1
0
4
3
1
1
3
3
0
4
4
2
5
2
4
1
4
1
2
1
0
2
3
1
2
4
2
1
4
5
1
2
2
2
2
2
2
4
1
1
4
2
1
3
4
1
0
2
2
3
3
5
2
0
2
1
2
3
0
3
2
2
3
1
1
3
1
3
3
3
2
2
4
3
1
1
4
1
1
1
2
0
3
2
4
0
1
1
5
3
2
1
1
3
0
3
3
4
3
4
2
3
2
2
1
1
2
0
6
3
5
5
3
1
2
3
5
2
4
2
2
1
0
1
0
0
1
3
3
2
0
4
3
2
1
1
4
1
0
1
3
2
0
2
4
1
2
1
2
8
2
1
7
3
0
3
1
1
3
1
1
0
4
1
3
4
2
4
1
2
4
3
1
3
6
3
3
1
3
1
2
0
1
3
4
2
3
4
2
3
2
0
2
2
2
3
6
4
1
1
1
1
2
2
2
2
3
0
2
5
1
1
4
0
1
3
0
3
3
5
1
0
0
4
0
1
2
2
1
1
1
0
2
2
2
0
2
0
0
1
0
2
3
7
2
2
3
2
1
1
3
1
5
2
3
3
3
1
0
1
1
3
5
1
6
1
2
3
1
5
4
4
1
1
3
1
3
1
2
4
2
3
6
1
1
1
1
2
0
1
2
1
2
1
1
2
2
3
4
2
2
1
1
1
4
0
3
2
2
4
3
0
0
3
4
4
1
5
3
4
2
0
2
1
1
0
10
3
2
2
4
3
1
2
4
0
4
2
2
1
0
1
2
2
1
3
2
3
1
3
4
1
3
0
2
1
1
2
2
1
2
2
1
1
6
5
2
2
2
3
0
3
9
37
24
25
32
30
28
25
25
27
36
21
31
23
31
21
23
22
29
22
20
18
19
13
15
20
19
21
20
22
25
10
11
14
17
13
13
14
13
11
17
13
14
10
17
17
13
15
15
20
17
17
13
13
12
6
20
11
16
16
16
19
11
12
13
11
13
8
13
10
11
12
11
7
11
8
9
6
10
10
9
7
7
10
7
9
11
15
10
9
9
6
7
10
11
12
2
7
8
7
10
7
13
7
5
10
11
11
10
9
11
11
6
7
8
2
9
9
12
4
7
8
7
11
12
17
14
10
8
9
11
9
9
10
8
11
8
7
6
6
16
10
12
7
12
5
13
12
8
8
11
8
16
4
6
11
6
6
8
4
6
11
9
5
6
8
8
7
6
8
18
10
12
13
10
11
7
6
13
7
8
11
5
12
9
6
8
8
10
12
7
10
11
7
6
19
9
10
6
14
10
4
8
10
6
5
15
8
4
9
8
9
4
6
18
7
7
10
6
9
7
17
7
13
13
7
9
7
4
7
9
6
6
8
8
8
7
4
6
12
5
10
8
9
8
10
7
11
5
11
12
12
17
7
8
8
1
13
15
6
9
9
8
9
12
12
7
11
12
13
6
12
6
4
7
13
10
7
5
10
7
9
3
11
7
6
11
6
9
4
8
5
6
6
8
8
6
10
10
4
5
18
11
7
4
5
9
5
6
7
7
6
3
12
5
7
15
9
4
7
8
9
12
13
7
10
8
8
5
11
8
6
11
9
79
96
105
98
90
90
78
76
78
76
67
74
73
46
48
58
60
53
41
57
57
52
44
21
39
32
33
33
26
37
32
28
32
25
27
24
26
28
23
27
26
30
24
23
22
15
20
11
14
22
13
14
24
21
18
13
17
25
23
11
15
15
14
17
19
13
11
13
15
13
16
10
22
11
13
11
16
22
11
12
15
8
17
11
9
14
8
14
8
11
10
15
10
11
10
11
14
10
13
11
9
11
13
9
12
7
9
7
10
14
7
7
12
19
13
16
10
12
6
14
13
17
8
12
13
10
14
4
14
10
6
10
11
19
9
13
9
8
8
16
9
13
9
13
12
8
12
7
9
15
8
6
10
11
13
9
8
9
13
10
8
10
13
10
17
10
14
13
10
10
4
8
13
6
12
10
9
12
9
7
12
7
12
7
14
3
13
7
12
8
9
5
15
11
10
11
9
14
12
9
9
10
10
9
10
8
10
9
9
7
8
13
6
12
9
13
13
10
14
10
11
15
17
6
5
5
11
17
8
18
14
13
10
8
11
13
10
11
8
12
7
10
18
6
10
3
6
9
7
7
13
17
12
11
6
7
11
7
9
13
11
10
7
11
10
9
10
11
14
10
15
14
13
14
11
10
13
13
12
7
5
7
6
11
13
9
8
7
14
8
10
5
6
8
12
12
5
11
9
10
10
4
7
8
12
10
15
20
7
8
15
15
10
14
7
16
10
14
14
10
9
7
14
14
9
9
5
14
11
18
10
10
11
7
5
3
4
3
2
3
0
1
4
1
4
2
1
3
1
3
2
2
3
3
2
3
3
5
0
3
5
2
3
2
2
3
1
1
3
3
0
0
2
1
4
3
3
1
1
5
8
1
2
1
2
2
1
3
2
6
2
0
3
5
3
2
2
0
2
4
4
0
1
2
0
3
3
3
1
2
1
1
1
2
2
1
0
0
3
2
6
1
1
3
3
6
4
1
0
2
0
2
5
4
0
4
1
3
4
1
3
5
3
1
1
2
3
3
1
1
1
5
2
4
2
1
0
3
6
0
1
3
3
0
2
3
1
3
0
2
4
2
4
3
1
3
3
1
3
1
2
2
4
1
2
1
1
1
0
2
2
3
1
2
2
4
3
1
1
1
2
2
1
0
0
1
1
1
3
4
4
5
1
2
1
2
2
5
1
3
3
2
3
1
1
4
4
2
5
3
3
5
1
1
0
2
1
0
2
1
4
3
3
2
1
2
2
5
2
5
4
2
1
4
1
0
3
1
7
2
4
4
4
0
2
3
2
1
2
3
3
3
2
4
1
0
0
1
3
3
4
1
4
3
0
4
2
4
2
2
1
1
3
1
2
2
3
3
4
2
1
2
3
2
2
2
6
4
3
0
1
2
2
3
2
3
2
2
4
0
3
0
2
2
1
2
1
1
3
1
2
2
3
0
0
4
0
5
1
1
0
2
3
0
1
1
0
2
4
1
4
4
6
3
1
4
4
0
1
1
2
3
2
3
0
4
2
1
5
4
6
4
3
4
3
3
0
4
2
2
2
2
2
7
5
2
3
3
2
2
2
3
2
2
2
1
2
2
1
1
1
1
3
3
2
2
2
3
1
1
1
3
1
4
2
1
0
3
1
4
2
1
2
1
5
4
2
3
3
1
3
2
3
0
4
2
2
3
2
1
2
4
1
2
2
3
0
6
3
3
2
0
2
2
1
4
5
2
2
0
3
1
2
5
3
2
2
2
1
3
4
3
3
0
4
0
3
2
4
1
3
5
2
0
4
2
0
6
2
5
3
1
3
3
0
4
0
1
0
4
4
0
1
1
0
1
1
1
3
0
1
2
0
4
2
4
1
3
4
3
0
0
2
1
1
2
2
1
1
1
3
0
1
1
1
1
4
2
7
3
3
3
2
3
4
3
4
3
4
5
2
4
4
1
2
3
4
4
4
2
4
2
2
1
2
0
3
2
4
4
2
3
4
4
5
2
1
2
3
2
0
1
1
3
4
0
3
1
4
5
1
6
2
3
4
2
3
1
2
5
5
2
3
1
1
4
2
1
7
3
0
0
3
4
2
3
2
1
0
5
4
4
3
1
4
0
1
0
3
6
2
2
3
3
1
1
2
2
2
7
6
2
1
4
1
3
0
3
0
1
2
2
4
3
2
5
0
0
2
1
2
1
2
4
3
4
1
3
1
3
2
4
1
0
2
2
2
2
2
4
1
1
4
4
3
0
3
0
1
2
2
1
0
0
2
2
3
3
1
0
4
0
3
3
0
1
1
0
1
0
0
1
0
3
3
1
2
2
2
3
1
3
1
0
0
1
1
2
4
2
1
3
2
1
1
3
0
0
0
4
0
3
4
2
1
2
3
4
1
1
2
2
2
3
6
1
1
2
2
0
1
1
2
1
0
0
2
3
5
1
4
1
0
1
2
1
1
4
3
1
1
5
2
1
1
0
0
2
0
1
0
2
2
2
2
3
3
3
0
3
1
0
1
2
2
1
1
2
4
0
4
2
0
1
0
4
0
1
3
3
2
1
2
2
3
0
2
3
0
1
2
3
2
2
1
2
2
2
0
0
0
2
3
0
2
0
2
2
3
1
1
3
1
1
1
1
0
2
1
1
5
3
2
2
1
1
3
1
1
1
1
2
1
0
5
0
1
3
1
3
2
3
1
1
2
0
4
1
0
1
2
0
1
4
1
3
2
3
1
4
1
2
2
2
1
1
1
4
0
1
3
0
1
1
1
0
1
1
1
1
0
1
2
3
1
0
1
3
1
1
3
3
1
1
3
1
2
1
2
2
0
0
2
3
2
1
1
2
1
4
0
1
0
1
3
0
1
0
2
1
2
3
0
2
1
2
1
2
2
2
2
4
2
1
0
1
0
0
0
2
1
0
2
2
0
2
0
