#Saved Data from the class pulsed_measurement_logic on 18.11.2022 at 15h52m43s.
#
#Parameters:
#===========
#
#bin width (s): 5.0000000000000001e-09
#record length (s): 8.4875000000000003e-05
#gated counting: False
#Number of laser pulses: 90
#alternating: False
#Controlled variable: [5e-08, 1e-07, 1.5e-07, 2e-07, 2.5e-07, 3e-07, 3.5e-07, 4e-07, 4.5e-07, 5e-07, 5.5e-07, 6e-07, 6.499999999999999e-07, 6.999999999999999e-07, 7.5e-07, 8e-07, 8.499999999999999e-07, 8.999999999999999e-07, 9.5e-07, 1e-06, 1.05e-06, 1.0999999999999998e-06, 1.15e-06, 1.2e-06, 1.2499999999999999e-06, 1.2999999999999998e-06, 1.3499999999999998e-06, 1.4e-06, 1.4499999999999999e-06, 1.4999999999999998e-06]
#
#Data:
#=====
#Signal(counts)
6
7
1
1
9
6
3
7
3
8
5
2
11
7
9
3
23
142
126
122
129
110
77
95
97
82
74
75
57
56
50
50
56
46
54
44
38
38
44
33
32
35
29
23
32
28
42
25
31
28
30
25
25
30
23
22
24
23
31
24
20
24
20
20
24
21
17
21
23
18
24
17
28
19
25
30
19
24
23
24
16
16
18
25
15
24
28
22
22
28
25
14
28
24
17
24
23
18
23
25
15
25
31
20
22
28
22
16
13
18
11
22
19
26
24
18
18
14
29
25
18
23
25
18
23
21
31
25
21
19
22
30
20
24
24
20
20
17
15
17
15
22
15
23
30
11
13
25
21
14
19
24
29
12
19
29
24
27
21
15
25
14
20
29
21
17
20
19
25
18
27
16
22
17
24
17
21
20
30
14
21
22
19
24
19
12
26
19
17
24
26
19
22
20
28
11
33
15
22
22
14
22
24
23
20
21
20
21
28
29
23
24
26
14
22
19
63
355
249
242
241
201
179
183
167
163
135
135
135
124
108
126
106
106
77
92
70
86
65
68
66
73
48
58
63
50
57
50
44
44
42
35
42
47
26
42
42
45
44
40
37
27
23
36
25
34
34
39
22
30
31
30
22
33
36
28
20
22
31
29
29
28
36
33
24
18
31
25
33
27
22
33
33
31
39
23
32
33
26
30
31
22
27
24
31
26
18
20
25
25
24
28
30
18
22
34
35
24
18
22
32
40
22
36
31
27
23
21
24
34
27
37
27
26
23
21
32
33
19
27
31
29
24
32
32
23
25
20
26
19
20
25
20
32
16
26
32
18
25
31
30
27
34
19
26
21
26
27
21
26
35
20
27
32
34
24
23
20
34
31
30
30
17
22
28
20
27
32
33
25
27
26
23
32
26
31
35
37
31
41
33
26
27
18
24
26
33
32
24
34
23
29
27
27
27
23
21
9
6
8
7
9
5
7
6
7
3
6
11
3
58
304
273
259
200
183
166
160
158
128
129
136
101
109
103
97
87
86
77
65
72
54
64
55
49
57
50
48
53
37
46
44
34
43
35
28
36
21
28
24
21
25
23
25
31
28
32
16
30
24
30
22
23
18
28
23
27
40
20
23
22
23
27
19
19
17
21
18
32
29
24
20
25
17
27
17
19
20
22
38
21
23
29
29
24
29
22
21
22
22
23
32
26
21
23
20
25
22
19
33
26
20
31
15
21
18
24
22
21
15
22
22
19
27
25
27
20
24
14
16
27
20
27
22
21
21
24
24
15
21
24
18
14
20
12
19
22
23
24
22
19
23
20
26
20
28
18
16
15
17
21
17
19
28
25
21
15
22
19
24
20
24
13
17
31
15
20
18
24
28
17
15
19
19
18
19
18
18
22
28
23
23
16
24
22
18
23
26
16
18
24
16
20
31
29
15
23
16
23
16
70
307
291
238
226
194
203
185
164
146
142
141
153
113
122
110
101
91
87
77
85
72
87
72
67
65
53
61
49
50
54
50
57
39
51
37
38
41
41
43
20
37
30
43
40
36
31
35
25
32
27
34
20
23
34
25
30
46
31
32
29
27
23
28
28
31
26
27
30
33
20
36
23
32
34
32
29
33
26
23
29
24
23
34
30
25
34
28
34
35
37
24
37
33
21
24
36
33
33
29
33
35
34
25
24
34
28
27
34
33
31
23
31
24
28
23
32
19
21
16
31
33
28
30
36
24
27
28
30
26
31
30
24
25
26
28
33
22
27
21
33
25
30
21
26
34
31
17
31
37
25
26
28
23
31
23
28
25
33
31
23
17
23
27
22
29
23
29
22
27
26
23
29
24
35
23
22
22
24
31
26
26
28
22
36
36
27
28
28
21
27
16
34
34
32
26
22
24
26
21
17
12
5
5
5
5
6
7
4
2
8
9
7
9
4
7
5
8
7
5
6
4
5
9
49
283
204
219
198
215
163
156
137
157
134
125
84
99
88
104
70
75
57
65
68
54
61
49
61
47
44
40
37
35
34
44
41
33
29
22
33
38
26
37
36
28
24
27
15
29
25
30
24
31
21
32
26
22
16
23
11
27
30
23
15
26
30
21
20
26
27
19
18
23
29
17
29
20
18
14
21
25
19
19
29
18
14
16
19
22
25
24
17
18
20
13
24
24
30
17
28
22
22
19
24
22
12
26
25
22
25
20
22
26
29
17
19
26
24
17
28
11
26
19
26
20
21
24
20
20
24
19
29
20
16
18
21
16
24
25
17
25
24
20
16
34
28
25
24
20
22
16
14
16
24
19
13
21
24
28
21
25
15
13
24
18
17
21
29
24
17
21
21
20
16
14
26
27
18
22
29
27
21
17
13
30
21
18
17
22
23
19
21
31
13
22
28
19
28
25
18
21
32
20
66
308
243
246
196
202
200
180
150
153
147
137
116
119
144
118
108
103
80
109
79
81
72
79
69
49
61
52
54
52
52
58
50
48
46
38
36
45
33
37
42
36
44
25
32
28
27
19
32
21
31
28
32
27
25
29
33
29
35
32
18
31
26
23
36
28
29
28
24
13
24
30
36
24
25
20
23
34
21
39
34
19
27
24
29
31
31
20
35
32
25
31
29
28
36
29
31
24
26
26
17
20
23
35
23
27
25
30
25
32
35
23
25
26
28
21
21
26
30
22
17
29
23
30
26
12
32
16
26
28
25
26
26
30
23
23
30
28
18
24
13
28
21
34
35
32
36
18
20
24
15
29
19
21
16
33
25
29
23
28
34
27
25
26
32
32
27
30
41
35
36
26
33
29
32
26
28
26
29
38
22
21
24
28
28
27
23
29
28
27
24
30
28
13
24
35
27
36
28
30
28
7
6
3
5
9
9
10
6
8
6
10
5
13
2
5
2
6
10
7
10
7
7
10
10
7
8
10
3
7
4
5
5
8
58
296
251
196
199
196
163
150
153
124
126
123
93
125
87
80
72
67
76
56
65
49
52
56
51
49
38
42
26
40
37
44
37
33
31
39
35
23
23
29
19
38
31
31
23
29
20
23
26
33
28
15
22
23
13
25
25
23
32
16
23
25
23
32
29
22
22
20
22
25
21
34
26
22
23
23
27
22
17
15
17
29
18
15
13
22
21
21
20
21
24
22
25
19
23
19
15
12
18
17
21
18
17
38
14
21
17
19
23
18
20
22
23
29
18
22
23
27
24
18
11
23
26
17
16
14
25
23
22
20
25
14
24
21
22
20
18
18
14
14
28
21
16
30
22
25
12
20
18
21
18
19
25
20
29
17
21
25
19
15
23
23
34
30
23
29
27
18
22
20
20
23
22
18
15
16
24
24
24
19
25
26
16
22
14
27
25
23
18
8
21
17
30
11
24
24
25
25
18
30
71
302
232
235
219
233
220
186
183
138
155
126
121
124
97
112
104
98
71
96
79
74
72
70
63
70
66
70
61
49
40
64
45
46
41
32
51
45
46
34
26
38
27
39
41
35
39
30
35
42
32
30
41
28
39
26
32
31
23
27
31
22
30
33
26
25
29
29
21
28
29
27
27
30
26
33
35
23
26
14
39
33
31
34
24
33
32
25
31
18
21
31
28
31
31
34
29
25
31
29
32
30
22
29
22
26
32
26
30
25
19
29
16
29
25
24
26
22
24
31
23
29
40
33
29
26
31
29
28
22
25
26
23
29
19
20
32
28
28
33
31
20
33
37
25
37
23
28
33
30
22
22
38
27
28
26
27
24
31
21
23
25
35
25
24
25
26
21
24
21
32
28
26
29
20
20
31
20
37
26
16
31
27
26
29
20
29
29
30
26
23
26
26
30
33
28
23
35
27
31
16
6
5
7
7
9
6
5
10
6
3
8
4
6
8
9
8
3
9
10
8
7
8
6
7
7
6
7
4
5
8
3
4
3
5
6
8
4
9
8
5
10
15
7
50
238
230
213
188
173
163
144
161
113
116
118
103
95
78
83
87
69
81
65
72
56
66
50
49
65
49
39
53
35
40
32
32
32
32
31
24
34
37
26
20
27
27
27
24
29
30
26
31
16
21
18
24
21
25
31
32
26
26
29
26
26
24
19
21
13
21
17
19
21
25
23
25
25
17
23
21
24
22
20
25
25
31
24
31
21
22
17
23
24
29
19
27
19
18
23
19
26
19
20
24
21
13
32
23
19
23
27
17
16
26
18
12
25
20
17
21
23
30
16
22
21
20
28
22
18
30
24
30
20
20
18
20
18
25
18
19
19
21
20
22
17
23
21
31
21
21
23
23
14
27
18
18
23
18
24
16
29
16
26
22
20
16
20
11
27
26
18
15
16
18
21
20
31
16
14
24
28
18
13
24
32
22
14
22
21
17
18
23
22
25
17
23
16
22
27
16
25
12
21
73
324
237
252
244
203
211
180
185
155
155
124
139
122
91
121
95
86
88
74
74
75
73
69
55
47
69
57
51
65
53
36
46
58
41
60
36
39
47
38
43
44
33
37
29
44
27
35
33
27
36
24
25
27
28
33
22
26
26
26
43
22
30
28
32
34
27
28
30
25
28
26
27
26
33
33
28
25
34
20
36
28
28
31
28
28
29
33
23
31
22
36
18
27
29
29
26
26
20
24
31
23
33
23
28
31
25
28
23
25
35
28
32
23
23
27
21
20
16
31
24
22
22
23
29
26
19
25
35
27
26
21
31
32
17
24
41
25
42
30
32
33
26
24
34
35
25
29
25
34
21
17
26
20
30
25
37
30
29
30
36
26
24
30
30
26
34
21
28
27
20
28
23
19
18
28
32
24
34
26
24
41
27
26
28
33
19
31
34
20
27
27
27
21
29
27
23
23
34
21
20
9
4
3
12
5
13
6
4
4
3
6
6
8
5
5
10
9
8
5
9
4
3
3
13
9
12
10
7
5
8
6
6
5
7
10
6
3
6
13
7
6
8
11
2
5
3
7
7
9
9
8
5
12
45
265
210
223
191
165
166
158
140
115
112
84
79
99
102
86
83
60
67
64
66
48
49
46
55
54
35
33
44
37
43
31
34
37
21
31
50
18
22
36
29
36
33
24
39
21
27
30
25
19
23
23
24
20
18
23
17
19
20
23
24
26
29
26
22
30
24
19
21
23
17
17
31
25
29
26
23
28
29
25
27
21
14
16
17
22
11
17
25
23
16
20
19
18
25
21
22
21
22
23
28
32
24
22
23
18
15
18
16
17
19
29
21
15
22
24
17
16
21
23
20
18
19
12
26
32
16
26
23
29
19
17
29
15
24
21
19
27
19
18
26
19
22
21
23
15
21
21
30
21
22
27
30
27
13
20
26
20
24
16
27
24
23
23
25
28
13
21
19
22
20
30
28
22
27
19
23
20
20
20
21
15
16
14
20
19
21
25
23
31
19
21
17
18
18
27
23
16
17
19
58
308
270
245
249
209
203
196
148
174
155
160
118
141
104
89
114
80
92
89
70
68
73
76
75
64
49
61
47
51
46
50
59
51
54
48
37
36
53
41
24
29
26
47
43
31
34
31
27
26
29
31
29
30
28
34
26
26
28
34
27
30
29
27
26
20
24
31
22
32
31
32
25
23
36
23
39
26
26
33
23
22
28
21
33
35
25
37
22
41
21
35
29
24
25
31
27
20
25
29
17
24
30
26
39
25
24
17
30
22
34
34
34
29
15
22
19
28
22
20
34
28
28
34
29
27
33
25
30
30
23
32
30
34
17
30
30
34
28
28
29
32
26
28
19
22
27
28
31
28
28
30
18
26
40
22
38
27
27
38
32
25
21
21
23
16
23
28
29
38
25
37
22
22
24
27
23
20
30
37
25
25
28
26
29
37
33
35
34
31
29
31
24
19
31
21
23
21
20
20
25
10
6
5
8
6
2
8
6
9
7
5
13
6
4
11
8
8
4
6
7
6
5
10
6
4
8
5
14
4
8
10
8
6
10
6
9
6
7
2
9
7
2
12
6
3
9
5
2
6
5
6
3
3
7
4
6
13
9
9
4
5
10
5
47
252
207
199
194
171
138
141
111
127
124
98
89
84
100
69
68
68
71
59
58
50
55
53
49
40
38
33
28
31
22
32
40
40
34
35
29
22
29
22
32
28
20
19
23
24
24
26
24
18
26
20
19
19
19
17
26
22
24
21
16
22
24
29
19
26
23
19
26
17
17
26
25
19
20
17
19
20
21
16
23
23
19
21
16
20
20
20
22
19
25
23
19
22
23
16
27
24
35
20
14
12
23
23
21
19
21
28
15
20
22
19
25
12
14
24
25
26
21
19
19
23
30
17
23
30
19
25
22
28
13
20
26
19
27
25
18
24
21
21
21
29
25
26
26
19
28
20
21
17
20
24
23
18
18
17
24
19
19
17
17
16
19
31
18
27
20
23
24
21
15
20
25
28
10
25
13
25
18
16
33
26
22
24
15
20
21
21
22
19
16
15
22
23
21
24
22
21
14
15
83
334
274
237
236
200
182
200
184
154
150
144
132
132
98
103
93
100
92
94
83
79
69
64
60
57
64
58
65
65
49
46
40
58
48
43
44
35
44
26
24
43
37
47
38
42
38
31
40
27
34
27
39
37
22
29
35
32
32
21
32
25
33
28
32
30
26
24
32
31
25
27
32
39
19
29
32
16
24
27
31
32
21
35
27
34
27
20
30
27
24
28
44
29
24
24
33
32
29
28
31
22
35
24
26
29
35
33
28
24
24
27
24
22
27
22
25
28
28
27
25
27
30
31
19
34
28
30
25
30
29
25
30
24
24
23
25
33
23
32
17
22
19
28
37
20
24
25
27
25
27
21
23
22
24
28
31
28
27
23
30
23
27
19
27
29
28
30
27
32
22
30
31
32
32
30
28
35
17
35
21
23
27
25
25
30
26
26
40
26
19
32
30
35
33
31
31
32
23
22
25
4
12
4
8
9
7
7
8
12
5
7
7
6
8
4
5
7
9
14
10
9
4
8
8
5
7
11
5
4
11
6
8
2
4
10
10
7
5
5
5
7
2
5
4
7
16
7
10
10
9
2
7
8
8
10
3
9
2
8
6
9
6
5
8
2
15
9
9
8
2
4
9
2
46
244
188
201
170
169
130
144
138
109
107
113
71
86
75
81
76
74
68
59
54
61
58
27
53
40
43
46
45
33
32
36
15
34
37
37
35
25
35
33
30
29
21
28
24
29
27
23
28
26
25
20
22
21
26
16
16
32
29
21
28
22
25
17
31
28
21
21
26
24
30
24
32
25
22
20
22
28
19
29
26
28
17
21
17
18
19
23
24
16
17
18
19
23
21
25
24
17
25
24
14
20
20
21
30
19
25
23
18
19
15
16
17
24
22
28
16
29
36
18
12
19
22
28
27
22
29
27
24
16
22
18
21
16
23
24
23
18
19
23
13
15
21
16
21
15
23
21
21
18
21
12
24
29
17
26
22
22
29
20
20
21
20
23
25
19
21
21
18
23
15
24
19
14
24
19
10
19
22
19
15
25
16
20
15
19
22
20
22
12
16
16
33
20
11
23
13
18
23
25
57
331
270
234
233
217
225
201
163
160
142
153
130
130
117
92
96
95
109
77
88
67
54
70
63
62
69
71
54
54
59
45
46
36
44
40
39
43
34
37
34
31
40
25
27
27
37
22
38
20
30
29
35
30
30
29
31
32
25
31
31
34
28
41
30
43
30
30
28
27
31
30
32
35
24
17
27
25
30
23
24
26
31
27
23
27
21
29
31
27
31
29
28
22
33
31
21
17
20
27
25
35
24
33
29
22
26
23
23
27
27
19
18
23
23
31
26
27
19
28
32
25
28
25
24
27
32
26
32
26
32
19
26
23
18
29
36
25
26
29
23
18
21
32
31
28
28
31
30
33
27
32
26
38
22
26
17
15
31
25
29
32
20
27
22
31
20
29
31
26
22
22
26
23
35
25
27
29
31
27
22
29
32
23
25
30
21
23
20
18
15
32
23
26
34
31
29
28
29
23
28
13
8
8
7
7
4
4
7
6
9
4
5
3
4
9
7
8
14
9
3
8
9
6
12
4
5
6
5
8
5
5
8
6
10
8
6
5
8
11
6
5
0
4
7
6
7
6
4
8
4
2
11
7
5
8
5
5
4
8
8
4
6
6
2
4
7
5
3
0
3
6
5
5
3
6
8
9
4
5
7
8
7
9
39
226
193
200
172
142
154
126
116
115
90
100
83
73
77
79
59
77
52
54
61
64
50
43
43
38
36
34
40
24
38
28
32
38
25
30
36
32
27
32
36
31
30
26
26
22
20
21
23
25
26
20
29
17
23
25
18
16
23
26
19
26
27
30
11
24
14
21
23
20
18
26
19
23
33
20
21
20
22
21
26
31
23
18
25
20
16
19
19
20
23
14
24
23
20
26
16
23
17
22
16
22
16
28
21
30
19
19
20
22
23
20
29
19
17
15
21
19
22
24
19
20
22
19
18
19
27
15
18
14
20
23
14
28
28
23
22
20
18
20
14
19
19
21
21
22
26
24
21
21
22
24
14
26
19
27
23
30
20
19
20
27
28
19
24
21
10
12
27
24
20
20
23
17
17
26
21
22
21
16
16
17
22
23
21
21
17
12
21
18
23
19
22
17
17
18
22
26
23
26
57
309
276
228
224
201
204
190
163
161
131
120
141
123
118
105
106
93
90
83
80
63
59
67
75
67
59
67
53
56
46
53
53
40
45
40
43
43
32
35
33
27
40
37
29
32
27
25
36
29
36
32
33
33
31
31
30
24
43
23
26
32
22
30
20
33
25
21
28
33
25
27
21
29
26
29
21
35
26
30
31
28
33
22
36
26
28
33
25
24
29
23
31
24
29
25
26
29
19
33
27
41
28
31
34
26
24
27
27
22
29
31
35
24
22
26
21
32
28
34
22
26
27
29
28
29
27
26
27
32
34
18
33
24
19
27
28
30
24
27
35
31
26
24
17
22
24
20
28
32
23
22
30
26
25
23
33
30
25
21
28
41
31
32
27
25
27
27
25
33
30
32
27
21
20
17
28
23
27
26
24
25
27
34
19
25
20
21
27
28
22
34
29
31
29
26
29
36
22
17
24
7
12
5
6
6
10
8
8
3
1
5
1
3
7
5
4
8
8
9
5
3
5
4
8
11
1
5
10
3
10
7
7
5
5
10
9
8
7
14
6
7
4
5
8
9
10
5
2
5
9
5
9
7
4
4
8
6
7
7
7
7
4
4
9
8
9
8
6
6
13
10
5
6
10
6
9
5
4
7
5
4
13
5
11
3
9
6
3
8
8
8
10
8
37
245
207
192
171
176
142
142
134
104
105
82
103
79
83
79
70
67
57
64
52
61
54
55
53
45
48
41
38
35
37
29
39
32
30
25
19
33
25
24
27
27
17
29
24
28
22
25
22
27
28
26
15
24
21
20
24
11
15
19
27
22
16
25
24
23
21
29
25
22
22
26
23
19
18
22
23
17
28
17
28
21
20
18
32
26
15
18
18
23
21
19
23
23
24
12
33
27
24
21
29
21
24
19
22
21
19
19
22
25
16
23
26
26
18
22
13
15
27
21
28
28
17
19
17
27
20
19
12
23
11
28
26
21
21
15
25
18
24
18
11
14
24
25
25
22
21
21
24
23
16
12
22
14
21
13
23
21
17
27
23
28
28
19
17
24
24
19
17
20
18
18
17
26
25
25
21
14
20
17
21
23
17
30
21
17
27
14
28
26
27
21
13
24
20
18
17
18
21
24
63
349
247
263
239
208
200
184
157
161
144
142
135
122
109
99
98
111
105
78
93
79
66
69
63
64
56
55
47
59
56
47
53
39
38
36
42
44
41
44
45
30
45
41
47
25
32
37
40
17
21
26
38
37
27
31
29
25
30
24
34
27
30
25
31
28
30
31
27
20
32
39
26
28
29
28
24
33
29
26
31
27
27
23
31
27
18
33
20
24
21
26
30
37
17
29
26
31
25
29
22
22
30
21
30
27
29
23
26
32
32
21
21
30
41
28
15
25
21
20
28
17
34
35
19
26
30
32
23
25
36
26
27
26
24
22
30
25
19
33
25
30
35
29
24
30
36
27
28
26
25
28
30
33
27
21
30
25
33
25
18
32
21
29
31
37
28
22
37
30
24
32
27
31
19
30
27
29
31
22
26
21
27
28
26
31
23
24
23
27
20
38
31
32
24
21
29
36
31
25
23
10
8
5
11
6
5
6
10
4
9
9
4
9
10
11
4
7
8
3
4
5
8
12
3
8
6
7
7
6
12
4
6
10
9
2
7
2
9
3
11
4
6
8
4
3
4
8
6
6
11
4
3
7
5
4
5
6
5
11
7
3
2
7
4
7
3
7
3
12
10
2
4
14
5
3
5
8
1
7
4
8
6
6
5
4
13
9
9
8
5
9
8
3
3
4
2
7
5
7
3
4
7
7
40
221
188
166
156
137
130
128
114
107
94
99
82
90
85
73
66
62
81
51
70
51
36
51
47
43
50
40
20
31
33
43
23
26
38
30
25
29
25
27
28
19
33
27
23
21
16
15
21
15
23
27
17
25
23
24
27
24
22
25
16
14
13
15
16
27
15
29
22
18
30
17
24
18
32
22
26
22
20
14
17
20
15
17
11
21
28
27
24
25
14
21
19
23
21
25
30
27
27
20
26
25
18
27
26
22
22
24
24
25
36
16
28
28
19
24
24
19
25
20
29
24
26
23
26
26
18
25
14
25
35
23
28
25
17
25
18
12
15
11
21
27
20
19
17
15
23
28
27
23
19
20
15
17
14
33
12
22
23
21
34
16
22
17
16
25
17
11
18
29
21
17
29
41
22
29
21
21
19
17
24
24
26
15
19
19
28
31
17
26
18
20
24
24
24
14
13
24
23
8
74
320
271
257
230
203
199
183
179
165
164
131
132
123
104
99
93
89
86
100
69
77
73
55
66
61
57
75
67
56
48
48
44
46
41
37
38
44
38
26
32
37
31
28
28
22
29
30
30
40
27
29
23
35
24
38
30
30
34
32
18
22
31
30
33
29
26
31
29
30
31
31
33
31
28
28
22
30
29
32
31
32
27
34
39
30
30
20
25
28
27
32
19
33
26
33
28
24
28
23
26
27
21
22
25
23
27
32
30
30
27
28
16
25
20
25
28
34
30
38
31
32
40
15
33
14
24
24
27
20
24
32
27
28
33
27
36
29
30
28
23
26
29
24
35
27
16
32
35
34
26
27
25
35
27
37
24
26
19
36
21
24
24
21
30
25
30
28
24
33
24
29
24
42
22
21
33
22
30
25
25
22
26
31
31
25
25
29
35
25
20
23
28
19
33
20
31
33
34
27
34
12
7
5
8
6
3
5
6
9
2
6
5
6
5
6
6
4
6
3
11
6
3
5
10
6
8
6
2
10
3
6
7
4
5
6
5
3
4
9
9
5
11
9
5
10
5
5
12
6
5
13
10
5
2
8
7
7
4
8
7
6
6
10
5
6
3
4
9
9
7
4
5
10
3
4
9
2
9
11
10
10
4
6
6
5
8
7
8
4
2
9
8
6
9
8
1
8
5
3
3
8
8
3
8
5
7
1
5
4
8
7
9
4
46
239
184
163
164
156
141
125
110
118
98
93
80
78
63
65
60
59
54
57
61
53
47
45
42
41
45
32
31
25
40
42
27
36
30
31
22
29
19
30
25
25
27
23
22
21
19
17
23
30
18
16
22
33
25
21
24
14
26
22
28
23
18
22
19
24
32
19
22
21
29
23
18
27
26
32
18
27
21
26
24
30
21
25
27
39
23
25
19
11
17
27
16
19
20
21
13
19
15
25
25
24
14
21
24
28
27
19
22
19
18
14
21
24
20
27
22
26
19
23
18
28
22
19
25
17
31
21
30
21
24
14
26
18
19
18
19
28
15
25
16
16
18
15
19
18
15
21
21
21
19
26
13
17
22
29
18
22
16
13
17
16
15
23
22
20
17
14
34
19
20
19
23
27
25
10
22
19
16
12
28
18
20
19
24
15
22
28
37
24
17
17
16
18
25
19
17
22
23
20
52
314
264
245
229
216
177
190
154
152
171
125
129
123
123
126
95
80
90
76
72
75
77
56
75
64
63
46
49
49
49
42
35
51
36
49
42
29
34
52
35
45
34
33
35
28
30
35
41
27
32
24
31
34
30
27
28
31
31
29
27
28
27
17
27
23
26
20
27
32
23
29
28
43
24
38
32
33
19
25
20
23
25
24
32
35
27
35
34
34
20
21
23
33
33
30
30
28
24
31
31
20
22
20
34
27
28
38
18
31
29
27
28
34
35
19
27
31
25
34
28
23
28
19
37
32
25
26
21
22
35
22
32
27
23
30
33
37
31
23
25
30
18
27
31
36
28
21
30
29
24
22
24
28
16
30
25
26
24
29
21
27
30
27
19
24
37
31
24
35
12
27
23
26
28
27
28
28
30
30
28
24
28
31
23
27
18
21
30
30
28
27
26
22
32
23
32
32
27
30
18
11
13
7
6
6
6
14
7
4
5
6
6
9
9
5
8
11
7
8
8
6
8
8
10
4
4
7
12
4
5
8
6
6
5
6
9
6
4
8
7
9
7
5
5
8
6
8
7
6
7
3
9
6
9
1
4
6
7
5
4
8
5
3
9
6
6
4
6
5
4
3
3
8
7
6
6
3
8
7
7
9
7
2
4
7
10
6
6
5
5
7
10
3
4
6
7
5
2
4
4
9
10
2
9
4
9
7
7
4
3
8
11
2
7
8
9
6
5
2
5
8
4
8
31
241
169
181
172
137
152
117
109
86
111
99
85
83
67
67
65
65
73
43
65
47
44
55
40
49
44
33
19
32
30
31
31
29
29
32
29
21
22
28
25
28
19
33
21
14
28
28
19
29
18
32
13
26
20
18
30
20
19
21
21
17
17
20
25
27
17
19
18
26
24
25
22
24
24
27
23
21
25
22
19
36
21
20
28
21
28
13
15
21
25
24
21
21
21
24
20
24
25
25
12
17
21
19
14
23
26
28
17
30
20
25
26
24
11
12
11
23
27
19
19
23
14
24
19
24
15
21
15
16
30
17
22
20
20
18
20
27
19
22
17
16
20
26
21
19
20
22
20
23
19
29
15
24
25
26
19
21
14
16
23
15
24
19
22
18
16
26
23
22
22
19
17
14
23
16
18
25
22
16
22
27
10
25
22
28
26
21
26
28
28
15
26
24
25
19
15
31
20
20
66
320
256
247
247
221
198
216
163
159
151
138
122
119
119
111
89
110
73
76
75
72
76
70
65
65
61
60
61
48
48
56
46
49
42
37
40
43
48
40
42
33
37
33
25
44
26
25
27
25
32
22
49
19
49
40
34
30
28
28
24
30
33
24
18
22
31
31
27
31
29
22
22
33
38
23
24
30
19
29
22
22
27
34
27
26
30
35
23
29
33
24
39
39
39
28
28
19
21
33
23
32
16
33
28
27
37
29
20
28
35
27
23
31
29
22
20
27
16
26
36
25
35
22
34
34
24
32
27
31
18
33
24
30
18
29
24
33
33
28
21
28
28
24
29
20
25
30
20
22
24
22
36
28
26
26
24
29
26
28
23
23
21
24
20
22
34
31
27
24
32
26
29
32
26
31
32
23
22
26
28
28
28
15
25
22
26
29
24
26
33
36
28
26
19
18
25
28
29
27
25
8
7
7
8
2
6
6
4
6
9
10
7
8
8
6
1
2
11
5
8
5
10
7
3
6
6
8
10
4
8
8
6
9
6
7
8
5
7
5
5
5
3
5
4
7
8
4
4
3
4
5
8
6
3
7
5
3
7
5
6
4
7
9
8
11
4
9
7
3
11
6
2
3
6
5
5
3
13
4
9
13
5
5
4
4
7
8
9
5
3
5
10
2
7
3
8
6
3
6
8
8
4
7
6
9
6
5
7
5
10
7
2
7
7
7
3
2
5
3
4
4
5
8
11
6
5
13
8
8
4
4
3
6
45
240
168
151
142
138
146
98
107
114
110
98
100
66
53
56
62
51
67
64
34
58
37
39
46
46
29
40
34
38
39
20
32
29
23
28
27
39
29
18
19
31
34
22
17
25
27
23
22
20
16
26
23
25
19
25
21
19
23
22
21
23
22
26
13
21
22
29
20
17
24
22
24
12
24
14
25
11
16
19
21
23
25
32
26
27
24
24
18
23
24
18
27
19
29
20
30
26
29
25
31
25
15
17
26
20
20
18
24
22
19
31
16
25
14
16
17
24
25
18
16
23
20
21
23
23
23
24
20
16
17
17
24
28
26
17
21
24
16
19
18
17
16
18
22
14
16
15
14
22
17
23
12
25
16
26
22
29
29
26
14
28
13
19
14
26
24
16
10
16
19
22
32
17
24
20
28
18
17
19
20
25
21
22
21
16
15
23
25
15
30
18
17
23
31
22
23
21
28
25
67
326
253
260
217
196
180
190
168
148
146
147
133
149
120
100
97
85
71
74
82
77
71
70
68
51
56
70
60
63
44
44
40
36
45
46
37
41
28
40
28
37
37
26
35
29
41
21
39
28
42
32
39
27
25
35
32
28
25
27
33
19
27
27
28
25
24
31
21
30
29
35
32
25
27
31
35
32
41
22
27
24
28
17
25
20
43
25
18
28
25
24
37
30
29
28
30
33
23
30
18
32
37
25
28
33
29
23
21
24
33
20
25
23
26
25
29
26
28
28
31
26
28
18
36
24
24
33
22
18
29
31
27
24
21
31
26
23
32
26
22
28
32
29
20
31
31
32
27
30
33
29
23
33
27
24
26
32
24
20
30
19
32
28
27
27
20
31
18
21
22
32
22
27
16
30
28
26
29
35
17
25
19
22
24
29
24
26
23
32
28
23
21
32
33
30
27
19
42
31
19
7
6
2
8
8
4
9
6
6
5
4
7
2
7
4
5
6
6
7
3
4
3
10
2
5
5
13
6
6
3
10
7
8
12
1
3
4
7
8
11
8
7
8
4
9
7
7
9
5
3
2
8
5
2
3
9
8
9
8
8
9
5
10
8
2
8
8
9
2
3
5
8
5
10
7
2
7
6
8
11
6
7
6
7
8
6
3
7
9
6
5
6
6
3
5
9
6
7
6
6
7
6
10
6
6
3
8
13
8
6
5
6
6
10
4
11
5
10
3
7
5
7
3
6
7
2
5
12
8
5
9
11
7
4
10
8
8
11
10
10
3
6
4
48
207
185
154
134
133
134
134
109
103
95
80
105
80
71
59
66
63
68
54
53
51
53
52
34
46
35
49
41
36
42
28
33
36
32
25
24
23
23
20
32
23
29
26
21
31
16
28
23
25
20
18
20
28
20
23
26
17
24
27
24
21
23
26
22
20
16
18
22
17
28
30
18
22
22
20
18
18
27
22
24
21
21
23
17
19
25
18
11
13
21
24
25
20
16
18
18
23
24
12
22
26
19
15
19
23
26
12
22
19
25
14
23
24
23
21
26
22
23
21
31
19
15
14
21
13
30
21
26
26
18
18
19
15
21
31
25
18
23
14
19
18
20
22
30
21
31
15
20
19
29
20
21
30
35
21
21
14
19
15
19
19
20
17
22
9
14
25
25
21
20
10
25
23
14
17
29
28
33
16
20
24
25
18
21
25
18
20
18
21
20
17
17
24
21
21
20
20
26
23
60
344
248
249
230
188
197
152
140
170
114
138
126
123
108
102
104
70
90
88
85
79
72
73
64
48
61
58
55
60
48
58
40
42
52
41
42
45
34
37
42
42
37
27
30
24
32
35
37
32
29
37
24
26
16
28
35
31
28
31
19
31
32
22
27
30
14
35
33
23
30
31
30
29
18
34
37
19
21
17
21
44
37
40
24
28
30
32
27
36
34
25
21
27
31
23
23
28
29
24
26
29
25
25
30
25
29
18
18
27
30
32
26
14
21
18
26
38
34
20
31
32
28
21
26
24
20
19
30
30
23
33
21
29
26
32
28
26
26
19
32
21
21
26
28
39
35
23
19
18
28
28
26
38
23
36
21
28
29
25
25
25
24
21
23
30
22
33
28
27
31
24
25
27
38
22
21
32
22
39
22
20
29
30
24
28
26
21
38
26
24
26
30
35
34
23
26
30
29
26
19
8
10
6
8
5
8
8
6
7
8
7
9
6
4
4
6
7
10
7
3
3
6
6
7
5
4
5
4
4
7
5
7
6
12
7
4
7
8
6
2
2
7
3
1
3
6
9
2
4
7
4
7
8
5
8
6
6
9
7
7
10
8
5
7
12
7
6
7
10
8
8
7
11
1
4
10
4
6
6
6
6
8
8
8
11
4
5
10
7
7
10
8
8
8
5
10
3
6
11
4
10
8
0
9
10
6
9
11
7
4
7
9
4
12
6
4
6
7
4
6
6
6
4
5
7
5
7
8
4
3
6
10
8
5
8
5
6
3
6
6
8
4
5
7
2
4
5
5
3
4
6
8
5
29
228
173
157
147
140
119
103
113
103
93
76
88
77
68
72
75
61
51
52
45
51
30
42
50
44
35
36
31
42
35
26
25
34
30
31
34
29
29
22
33
28
23
26
23
30
23
24
29
22
28
21
17
28
22
23
17
24
20
26
27
29
26
14
20
22
17
23
25
29
23
22
28
24
23
13
22
26
17
25
27
21
21
23
22
25
8
22
20
25
23
23
24
22
24
19
21
15
30
22
25
28
23
20
17
21
23
37
17
27
23
22
22
15
20
28
21
20
22
12
22
21
14
21
29
18
23
23
19
21
22
24
24
25
15
24
32
18
23
19
13
20
21
25
15
18
12
29
20
18
19
17
12
19
20
23
19
10
25
19
28
18
24
16
23
33
22
17
22
19
25
14
18
12
21
18
19
23
19
28
18
28
20
18
27
12
25
21
17
23
26
18
20
14
27
13
19
18
20
23
76
341
235
224
195
217
198
201
190
172
145
136
140
123
106
126
84
99
111
69
72
73
62
61
57
61
52
59
51
54
51
55
47
40
57
38
33
44
46
29
36
34
41
28
40
26
30
40
31
42
31
32
27
40
32
26
27
23
37
28
34
30
30
30
24
26
34
22
22
20
30
24
31
38
43
28
30
37
32
33
38
39
34
27
29
21
24
24
22
25
24
30
32
30
31
28
29
24
25
30
29
30
26
30
31
24
17
23
30
19
28
31
27
15
24
23
20
20
32
25
21
22
23
24
26
30
26
23
21
25
30
36
23
21
26
21
25
32
28
33
26
24
24
31
32
23
24
25
37
24
35
20
22
25
26
33
26
21
27
27
29
30
33
24
24
31
39
25
30
27
25
25
25
33
21
20
35
24
19
35
37
24
17
28
18
31
29
17
27
34
27
27
21
24
34
32
21
23
31
23
24
8
11
9
9
6
6
6
7
8
10
9
6
6
10
13
10
5
7
7
7
3
5
5
5
7
3
4
7
6
6
8
3
7
7
6
11
7
6
11
8
7
5
5
8
1
8
4
4
7
4
7
7
7
7
8
3
6
2
2
4
7
7
8
5
1
6
9
9
7
3
9
6
7
6
7
4
4
8
7
4
3
4
3
7
6
3
11
4
8
7
5
6
8
5
6
9
2
5
7
2
11
7
8
14
5
5
5
7
4
0
8
9
7
6
8
5
6
6
5
3
5
10
8
11
9
6
9
4
10
6
6
5
8
7
9
7
5
6
6
5
11
5
9
5
4
6
4
7
9
3
8
7
4
7
8
2
9
4
8
10
7
5
6
39
186
157
160
133
124
122
120
96
109
84
101
71
75
75
70
76
60
49
35
49
50
36
40
43
30
42
45
27
42
35
41
31
25
22
27
34
28
29
24
27
33
25
31
30
24
18
23
26
23
27
17
26
28
25
17
25
18
16
24
25
19
21
30
17
29
19
17
22
29
20
32
21
21
24
24
24
15
20
21
23
23
20
8
28
20
25
18
26
21
19
24
21
24
20
25
21
27
12
23
28
19
27
30
18
20
25
21
22
20
26
21
12
24
18
18
28
24
26
19
28
25
18
24
21
25
18
16
30
18
16
20
25
20
19
22
22
22
15
22
22
23
13
21
20
29
15
18
16
9
24
24
22
27
28
23
28
22
18
11
11
20
25
30
29
18
23
22
22
15
22
16
22
21
29
30
21
21
25
21
28
21
21
20
16
27
17
22
18
23
20
15
18
24
23
23
18
24
18
20
61
306
265
246
216
214
200
191
172
137
164
120
127
127
118
105
123
112
82
76
80
74
70
52
74
55
62
56
65
56
46
57
43
56
37
52
44
40
34
40
55
41
33
39
29
33
31
38
28
28
26
38
32
26
25
31
33
29
30
31
38
24
32
27
32
25
24
24
36
27
27
40
30
26
40
25
31
33
36
25
27
26
33
29
32
32
27
19
22
35
30
20
25
27
28
26
22
24
33
13
38
27
28
30
28
29
28
27
37
27
37
20
32
29
30
36
21
32
21
26
27
29
30
21
26
32
27
19
24
25
33
30
30
30
26
23
25
28
25
25
24
26
21
27
27
29
35
29
29
34
29
23
24
29
24
30
32
34
14
32
20
32
31
25
19
29
33
21
26
23
32
32
13
22
20
29
29
29
27
33
21
23
21
24
26
29
41
29
21
25
22
30
26
29
20
24
26
25
30
22
20
8
6
0
6
8
6
8
7
9
9
2
6
7
6
4
6
6
5
8
13
6
4
8
7
3
9
4
8
5
6
8
2
1
5
6
5
6
4
7
4
8
7
7
9
4
8
6
7
3
8
8
8
3
5
9
5
9
12
7
3
4
5
6
7
10
5
9
8
6
6
3
4
3
4
3
12
10
6
6
12
6
7
7
10
3
5
8
12
8
7
4
8
4
8
6
9
7
9
11
14
4
8
8
10
5
8
7
3
6
7
8
8
5
6
7
5
7
2
3
2
7
8
11
3
12
3
7
8
6
5
7
10
13
5
5
7
8
3
4
2
8
9
6
5
10
9
2
10
9
6
3
9
4
6
6
4
5
9
6
7
6
9
11
8
3
9
3
9
6
0
6
9
4
39
192
168
146
148
111
135
111
102
92
91
71
72
72
67
68
79
66
50
50
46
41
43
43
40
39
45
29
37
36
38
33
32
24
35
23
28
36
24
26
20
26
32
18
24
20
15
19
25
23
22
18
22
23
34
32
26
24
23
16
21
14
21
23
23
15
20
18
31
21
17
27
24
29
15
24
17
26
30
33
19
24
21
18
21
18
17
18
16
21
19
17
32
22
15
26
18
19
21
24
18
25
17
25
34
20
15
22
25
22
18
16
17
27
16
17
18
21
26
26
23
23
15
31
23
17
19
31
23
18
16
23
21
22
17
18
26
14
15
20
21
26
23
22
16
15
30
17
19
23
25
22
30
21
26
22
31
23
19
24
23
20
27
26
19
22
16
15
16
31
18
19
15
28
23
24
21
20
27
21
25
22
16
27
15
15
10
20
27
26
23
29
15
27
15
23
17
26
21
25
68
310
247
216
224
241
209
181
187
172
154
138
118
130
111
125
115
86
75
98
74
81
67
71
58
50
54
41
65
71
50
48
44
38
39
38
44
35
40
32
48
35
34
33
47
34
34
25
35
34
32
32
24
30
33
35
24
39
33
17
24
30
28
30
32
27
29
34
16
32
23
28
36
35
24
27
33
28
36
28
30
24
25
19
28
37
32
30
22
25
19
34
30
27
29
31
26
31
26
14
25
24
22
21
24
26
29
34
25
24
28
25
29
24
27
22
31
18
26
22
18
29
25
19
24
25
30
32
28
16
30
18
24
32
22
22
23
29
29
22
33
38
38
41
33
33
28
34
27
32
26
32
29
19
26
33
34
33
28
25
16
33
27
25
28
14
29
22
24
23
32
27
32
18
31
35
35
32
32
19
32
24
27
31
22
32
20
35
29
21
33
32
18
27
22
21
32
27
24
31
28
11
13
6
5
10
6
3
8
13
1
4
4
5
3
7
7
3
8
7
10
5
8
6
7
4
7
10
7
3
9
14
6
7
8
5
4
3
4
7
8
4
4
4
6
7
10
4
8
6
10
6
8
9
6
7
3
7
2
8
5
7
3
9
9
5
6
6
6
8
9
9
4
6
9
5
8
7
8
1
5
5
7
7
4
5
9
5
7
4
6
10
5
5
5
9
7
4
9
6
8
3
3
10
4
8
4
7
6
8
4
3
6
4
4
7
8
8
10
4
6
7
4
7
5
4
9
8
3
5
5
5
15
12
5
9
5
7
6
6
3
2
3
11
6
6
6
5
3
6
6
3
4
6
6
11
6
9
7
3
4
3
9
6
2
8
13
6
12
4
9
8
6
9
11
5
5
3
7
5
5
11
7
6
32
211
176
162
152
117
117
107
95
84
86
91
74
72
58
64
65
47
51
40
59
49
63
39
37
33
44
41
38
31
25
25
22
35
26
33
27
26
29
28
32
24
18
27
18
29
17
21
26
30
23
26
30
22
28
24
18
27
26
17
29
16
19
23
24
24
28
27
9
28
16
24
23
28
17
23
29
19
18
22
27
28
20
25
10
27
17
19
14
22
24
29
18
23
16
25
24
23
23
10
19
29
28
25
16
22
16
19
21
19
22
17
19
18
20
30
14
20
12
35
28
32
18
21
20
18
18
16
21
25
26
24
14
28
23
16
12
21
26
25
11
24
18
20
13
30
19
15
15
15
23
15
17
18
24
21
21
23
21
22
23
16
24
19
24
20
20
17
19
16
24
22
19
26
26
23
18
21
22
16
17
21
24
18
22
23
27
20
13
21
18
24
15
15
18
24
23
29
32
20
64
376
218
257
217
235
189
189
172
172
152
154
133
105
107
106
104
98
102
82
97
80
70
72
71
62
67
51
64
52
47
59
46
55
43
39
47
34
46
37
26
42
32
40
40
31
36
31
33
30
45
28
22
30
39
34
27
30
24
30
21
30
38
26
17
28
19
27
28
26
28
32
20
25
29
33
24
33
36
27
30
26
28
30
24
31
25
21
28
26
29
22
20
25
26
36
33
27
19
16
21
18
27
31
28
16
25
33
26
22
25
25
24
33
23
28
26
23
35
29
22
22
30
30
32
26
23
19
31
24
27
24
29
28
23
28
32
36
26
24
30
40
25
27
19
22
33
37
29
25
16
27
22
21
23
33
22
38
35
22
25
19
27
34
30
29
23
24
27
22
29
29
30
22
22
28
25
33
31
29
34
32
26
27
31
20
22
31
27
25
24
22
31
29
25
15
22
19
33
33
22
11
8
10
4
6
9
9
11
3
6
4
7
5
7
5
7
9
7
7
8
8
5
9
7
4
3
5
6
5
5
6
6
3
6
8
11
8
6
10
4
10
9
2
10
7
1
9
11
5
6
7
7
5
8
7
3
4
6
8
10
4
8
5
5
5
3
10
4
6
10
3
3
9
5
8
7
12
4
9
12
8
5
8
7
10
8
5
8
7
6
7
5
6
8
4
8
11
7
5
10
8
8
5
4
5
7
7
5
8
4
8
7
7
7
10
8
2
6
6
5
9
5
2
7
4
5
4
12
16
7
11
9
8
8
5
5
7
8
4
8
3
4
8
4
9
4
7
11
6
6
7
7
8
6
8
10
5
2
8
9
9
9
4
7
10
2
7
10
6
11
6
8
5
12
6
5
4
3
11
6
7
5
3
7
8
6
9
2
5
11
5
7
6
38
176
159
130
136
118
132
112
102
99
87
69
64
70
66
59
50
55
59
50
52
54
41
41
30
28
34
27
39
35
29
30
32
37
34
34
27
22
24
23
34
25
29
18
23
33
27
25
30
21
20
24
16
37
22
14
15
18
34
30
22
25
22
26
22
14
23
20
18
19
14
18
28
31
21
18
12
26
12
29
18
19
29
22
20
21
24
24
22
20
16
36
26
20
16
26
29
25
21
20
20
25
35
22
22
21
25
16
26
17
19
28
13
17
23
19
19
22
20
28
9
22
36
25
17
24
24
16
20
22
27
28
26
20
22
16
21
22
19
19
25
26
24
18
17
23
27
19
24
29
23
23
16
20
30
15
24
19
18
21
24
24
19
17
23
20
25
19
18
25
17
16
26
12
33
29
28
18
18
17
23
25
21
26
21
17
23
24
33
19
21
21
33
20
21
25
17
26
20
26
72
328
297
261
250
220
198
191
175
148
141
132
135
109
101
101
94
91
87
81
82
74
82
83
64
61
50
60
47
62
38
56
41
38
27
57
39
39
26
49
36
30
37
40
42
45
30
36
44
33
29
28
35
33
33
29
25
34
36
30
25
25
31
26
27
26
25
36
27
17
28
27
29
37
25
29
26
18
24
25
32
32
25
22
14
28
30
31
32
28
29
32
29
27
32
35
26
28
19
29
28
28
24
21
20
25
32
27
31
27
33
18
30
23
22
27
30
24
37
34
37
23
25
36
30
21
27
26
27
31
23
35
33
30
23
30
25
27
34
36
24
30
32
25
36
26
22
31
25
35
31
25
26
27
40
25
32
35
25
30
23
24
38
29
29
24
27
31
20
28
19
37
23
39
23
27
27
21
31
26
26
21
30
32
26
24
20
28
29
29
27
22
29
28
24
20
31
28
35
18
22
11
7
3
6
7
2
8
15
4
7
7
5
6
4
8
12
4
5
2
15
7
3
5
5
5
6
6
8
5
5
8
5
9
10
6
8
8
11
7
4
7
3
1
7
3
3
12
5
2
4
10
10
5
9
7
3
5
5
9
6
6
4
9
5
8
7
5
4
6
7
8
5
9
7
6
5
7
8
4
3
5
10
11
9
8
4
7
8
8
6
4
6
4
7
9
11
8
2
7
4
9
6
7
6
3
5
5
6
6
8
6
8
3
8
6
9
3
7
8
11
3
9
7
6
3
4
5
5
4
7
8
6
5
3
11
9
10
9
3
3
8
6
7
6
6
6
9
3
7
12
5
6
4
8
14
7
5
5
6
4
6
5
9
8
3
4
7
6
10
4
6
8
6
2
5
9
5
5
4
7
8
10
6
3
2
5
8
7
9
7
4
6
6
4
6
8
5
9
4
6
8
6
6
42
196
162
148
142
139
106
116
93
101
92
61
77
57
68
59
73
47
47
40
40
44
37
35
48
50
38
43
28
36
30
45
27
29
40
27
28
22
27
22
18
25
26
19
20
19
17
23
16
26
17
22
18
21
29
23
28
21
18
25
23
17
15
18
24
20
25
16
24
19
23
27
31
26
18
25
30
17
14
25
22
18
18
24
17
15
19
20
24
19
19
15
21
16
21
22
19
26
20
33
29
18
21
24
20
17
31
20
22
25
23
23
22
16
21
22
7
18
21
36
20
21
20
23
21
22
31
17
17
17
29
28
17
17
18
24
15
19
30
23
17
25
22
28
9
17
21
24
17
15
19
21
27
19
27
27
22
23
17
13
23
27
17
23
23
23
24
25
32
26
22
13
14
16
10
26
21
12
22
23
25
19
26
18
14
19
18
20
19
20
21
27
25
20
16
23
16
21
19
22
59
335
254
259
213
201
194
182
167
158
150
136
107
120
133
97
104
84
92
83
80
87
83
66
58
75
55
68
57
63
53
44
44
50
58
40
39
40
30
35
38
32
34
34
40
33
36
38
24
25
28
35
29
25
40
27
23
26
26
25
31
32
27
28
27
23
17
38
34
28
25
34
45
22
34
22
27
25
25
35
26
28
24
36
32
38
23
31
30
31
38
25
23
26
27
25
29
20
27
28
22
30
18
26
34
27
36
30
23
26
30
34
31
28
25
40
24
27
24
28
27
27
27
34
25
30
19
22
25
24
19
20
20
30
29
22
27
30
36
26
31
40
26
24
28
29
27
31
33
19
25
27
24
31
26
20
22
28
30
31
20
19
29
37
28
22
33
32
27
27
41
35
24
24
24
30
21
19
33
28
27
24
34
25
24
25
21
23
33
39
33
25
30
31
26
26
34
25
26
26
21
5
4
10
7
11
10
7
9
4
8
8
1
4
7
4
6
11
8
6
5
8
4
5
11
3
3
9
5
6
9
7
5
8
6
5
4
6
7
3
7
9
10
5
11
6
7
3
0
5
2
3
7
7
4
11
7
13
6
9
11
6
8
10
11
9
4
9
8
10
3
10
8
7
11
4
2
7
7
9
7
6
3
7
4
8
5
4
8
6
3
8
6
10
4
5
6
7
5
7
4
6
9
8
3
8
3
10
7
3
12
2
7
2
7
6
6
5
5
11
5
7
7
9
14
6
9
2
11
10
2
7
11
12
9
4
6
10
6
4
7
7
8
6
6
5
1
10
6
6
5
9
5
2
5
12
9
3
3
6
6
6
10
5
5
9
7
5
4
10
8
6
6
7
10
1
1
6
8
6
2
7
7
11
4
8
4
3
1
4
6
10
12
9
10
4
5
9
7
5
4
6
8
11
6
3
5
5
13
4
9
11
4
7
32
207
172
146
128
115
117
98
117
80
93
93
75
67
57
70
52
51
49
46
34
52
43
40
29
41
31
37
34
34
39
34
30
26
30
29
28
23
18
27
30
35
27
15
19
24
21
25
24
22
16
12
29
22
12
18
17
23
29
19
16
29
26
22
20
24
23
21
26
18
24
22
19
21
25
22
16
23
17
29
25
22
19
21
16
30
28
22
19
26
23
24
23
23
22
16
22
22
19
19
13
17
16
26
20
10
25
17
23
24
18
23
19
26
21
20
25
23
17
25
24
23
32
34
22
38
17
25
20
23
14
21
19
20
16
21
21
23
22
16
17
30
28
17
13
24
27
18
19
21
20
20
15
27
21
19
18
20
23
29
21
23
23
19
13
16
25
26
27
20
19
21
23
20
17
17
25
14
16
22
15
23
18
23
32
20
22
20
15
15
23
19
21
18
18
28
26
25
25
17
64
303
245
219
214
222
190
171
197
157
150
134
128
127
116
98
93
97
122
81
77
91
83
69
82
68
59
48
53
45
50
34
36
32
46
38
41
37
43
31
47
47
39
41
32
30
31
27
27
16
46
31
26
31
27
28
20
28
37
28
35
33
35
34
26
26
36
32
29
27
29
30
30
33
37
29
28
37
25
42
28
36
30
33
32
19
30
27
27
24
23
31
33
24
28
19
26
30
40
26
31
24
26
21
34
26
25
27
33
24
24
27
28
27
34
29
24
48
28
20
33
33
28
40
23
23
35
17
39
29
27
19
26
27
17
30
26
31
26
21
32
31
30
29
24
31
34
27
34
21
31
28
33
25
31
27
35
25
22
22
31
24
28
28
32
27
29
29
21
27
38
14
24
26
27
32
27
29
26
25
30
24
36
33
30
33
35
25
30
28
29
30
29
29
28
25
21
25
24
26
30
5
10
4
6
10
5
6
6
4
8
10
8
8
3
5
2
10
3
9
3
6
4
4
7
6
5
5
7
5
9
5
8
7
13
6
7
7
8
6
9
6
2
9
9
10
10
5
6
5
10
5
8
8
4
11
10
12
7
3
5
6
7
9
6
7
5
10
8
9
10
4
9
4
4
11
2
4
6
4
7
5
9
5
10
7
5
8
7
8
6
6
6
6
8
8
5
5
5
7
5
12
4
7
3
10
5
9
8
5
2
4
8
7
7
2
7
5
10
4
3
4
12
8
7
13
3
6
8
6
8
4
7
5
8
11
7
7
4
4
3
7
5
4
4
3
5
4
4
9
6
7
6
4
10
6
4
8
4
11
3
3
7
6
6
6
12
10
6
7
10
7
4
6
7
4
8
9
7
6
3
7
6
8
4
3
3
8
7
7
7
10
7
7
5
6
11
4
9
2
14
6
7
4
6
7
5
6
5
5
3
9
3
7
9
3
7
6
6
10
6
8
4
4
34
190
148
161
132
134
133
110
113
95
83
79
88
58
79
62
53
58
38
63
57
32
44
36
44
33
30
32
34
26
21
42
21
27
31
27
28
32
22
15
30
25
30
22
27
18
23
28
33
25
12
18
21
20
26
28
18
28
28
20
24
22
10
25
16
19
23
22
23
22
32
20
16
26
27
19
24
20
32
22
22
12
21
21
27
23
23
23
25
19
23
14
30
22
26
22
23
36
14
16
11
25
21
25
18
17
21
23
20
21
20
16
22
17
17
28
23
24
20
22
13
15
14
19
26
27
27
15
23
13
19
19
22
13
24
22
26
26
20
16
17
18
17
24
17
17
22
23
21
16
18
34
28
20
23
16
19
23
19
16
29
15
24
26
21
27
21
15
21
21
15
26
30
19
22
28
18
22
23
33
16
28
23
20
21
28
32
20
14
22
23
22
20
14
21
19
20
22
18
20
72
341
225
230
235
203
199
174
160
134
151
166
118
139
124
104
108
80
91
81
75
70
68
69
68
80
62
48
43
48
44
50
46
30
53
51
45
48
35
39
46
34
41
31
35
29
34
40
32
21
33
32
35
31
24
42
32
32
36
34
25
27
31
25
34
24
33
32
21
24
34
31
31
33
37
27
33
23
18
25
27
39
29
28
31
26
33
26
23
20
30
35
23
30
22
23
22
32
24
32
23
28
19
33
24
25
30
24
22
23
25
23
30
25
31
27
20
34
32
21
32
29
22
33
28
32
24
40
30
27
31
38
26
21
23
20
27
31
39
27
13
21
29
25
30
25
23
28
24
24
27
24
30
29
30
38
21
25
24
24
23
39
26
30
34
19
29
32
23
32
34
26
32
17
30
31
24
35
35
33
25
24
22
18
24
40
24
27
31
23
27
24
26
27
29
29
26
30
18
31
21
12
11
6
4
4
4
8
6
6
5
3
7
5
12
6
1
3
6
6
6
9
7
4
7
5
7
6
6
8
8
10
8
3
3
4
11
7
3
3
5
10
7
2
3
4
5
5
6
6
7
8
5
7
4
9
11
7
8
8
7
5
8
5
10
6
7
2
6
6
10
6
6
7
9
6
1
4
6
9
6
3
5
11
5
6
7
11
5
8
9
8
4
6
6
6
8
6
8
2
5
6
6
10
4
6
9
5
5
6
5
6
5
6
6
11
6
5
8
11
12
2
10
2
13
7
8
3
13
10
14
4
4
7
6
5
2
6
6
2
4
10
5
6
9
6
8
6
6
4
8
7
7
7
14
6
4
10
11
3
12
4
6
8
11
3
9
6
5
6
9
10
10
4
6
7
8
4
6
6
7
11
5
11
8
8
7
11
10
7
7
6
8
3
11
11
5
7
7
7
10
9
6
6
9
8
4
8
6
6
8
2
10
6
10
6
15
4
8
8
5
9
4
9
7
6
3
6
9
9
3
15
9
7
44
197
138
138
135
135
109
127
84
86
75
66
73
72
68
60
59
52
68
40
43
49
36
26
36
43
33
28
26
24
34
30
18
30
32
30
22
25
21
23
20
29
33
25
27
23
29
31
30
25
24
25
30
21
28
28
32
20
19
23
13
25
23
19
29
22
16
17
29
23
21
25
19
27
25
25
27
20
18
28
22
17
19
20
28
18
30
22
24
20
21
14
14
19
27
32
23
22
18
25
20
25
22
28
21
21
20
30
20
17
24
25
24
20
22
22
26
29
17
20
22
21
12
19
18
32
19
26
24
25
26
24
11
17
16
23
15
25
21
20
24
24
15
28
25
30
29
17
25
16
20
21
14
23
22
16
19
20
27
27
32
25
18
24
19
20
15
20
24
22
12
23
24
26
23
24
21
25
33
14
17
31
23
22
21
27
20
23
27
26
26
22
25
24
17
17
28
22
28
21
68
322
269
230
221
213
181
196
169
159
151
123
131
109
112
104
106
94
90
92
76
79
75
71
70
61
69
74
58
49
80
46
48
43
41
50
35
34
36
44
41
50
38
36
36
37
46
39
30
27
32
36
32
26
38
25
25
24
40
29
28
24
28
39
29
31
27
31
24
17
23
33
24
24
26
38
22
27
31
34
21
30
24
26
26
31
26
28
25
24
27
32
25
31
38
22
35
33
31
26
30
32
25
20
27
33
24
38
27
20
27
39
33
19
24
39
24
25
22
26
23
19
27
26
34
37
27
31
23
33
19
18
25
36
25
24
18
20
15
31
30
22
18
29
27
17
36
38
27
36
23
25
21
19
34
28
21
27
28
27
28
25
23
26
33
28
32
28
42
28
30
31
25
24
28
27
27
18
30
13
31
21
32
25
26
23
23
32
19
30
26
33
22
26
32
25
23
24
27
33
31
4
15
7
7
4
10
6
5
3
6
5
3
7
1
7
3
8
6
6
9
5
4
15
8
7
8
6
4
5
7
8
5
7
1
9
2
6
9
7
6
6
7
9
4
6
9
14
1
6
5
8
5
8
12
7
7
6
6
8
11
5
7
7
11
8
2
6
5
2
2
6
5
4
9
11
8
3
8
4
4
5
5
11
3
10
8
6
11
11
6
8
9
4
5
9
8
7
6
7
4
6
7
5
10
4
4
4
4
7
4
3
7
5
3
6
7
8
3
12
12
8
6
6
6
8
4
3
5
7
12
4
1
7
1
5
5
10
8
8
6
5
8
5
7
5
12
4
6
8
8
7
3
8
8
2
5
9
6
6
9
9
4
5
8
4
5
6
10
5
9
7
6
8
8
8
6
11
6
5
5
3
5
6
14
8
13
14
9
6
8
5
3
5
7
1
12
7
5
7
7
3
9
5
7
3
7
5
3
5
9
6
4
5
6
8
3
9
6
2
3
4
4
8
12
3
6
11
1
5
7
6
4
6
7
7
11
6
6
5
5
9
8
12
47
209
143
169
135
122
136
95
77
96
85
57
76
74
72
67
67
47
53
62
51
48
33
36
37
28
35
32
23
35
35
29
29
28
34
26
33
23
35
18
22
30
22
27
31
18
24
26
31
29
30
26
24
12
26
25
21
17
27
30
13
23
17
18
9
26
20
19
33
14
27
26
14
27
26
37
17
26
19
18
24
13
21
25
23
32
27
31
19
17
17
35
22
12
18
19
15
12
24
17
21
16
18
29
17
23
17
23
17
21
16
18
25
25
21
19
25
18
16
21
11
26
18
27
19
21
23
24
21
19
17
22
27
14
27
17
13
22
24
17
19
17
18
24
18
26
21
29
15
6
18
24
21
19
27
35
18
31
25
27
12
23
27
21
25
20
26
24
23
20
16
26
22
28
23
17
13
22
23
27
20
23
15
20
24
18
30
15
18
22
19
26
21
23
25
22
21
17
23
30
64
312
242
265
209
180
170
173
170
171
144
124
111
115
114
108
87
96
84
93
76
67
75
78
64
63
72
52
71
52
46
43
48
42
48
38
38
36
33
38
48
38
38
35
28
38
31
30
32
40
34
29
38
26
36
32
20
35
25
28
42
33
32
26
27
31
16
19
27
30
29
25
28
29
24
27
36
30
39
32
23
25
27
32
33
33
30
24
36
23
23
36
22
35
20
28
23
23
26
28
21
19
27
29
27
28
26
24
23
28
22
21
22
35
21
26
39
26
27
35
35
32
26
24
30
24
18
17
19
21
24
30
29
31
25
31
24
21
25
32
19
35
26
24
25
20
29
41
21
23
24
24
27
31
31
30
28
26
29
28
34
25
24
26
17
24
23
32
31
28
22
29
26
25
35
38
31
22
27
30
25
31
25
26
32
35
22
26
24
31
31
27
24
27
28
37
20
29
31
32
19
4
5
12
9
4
4
7
11
6
6
4
3
1
10
4
4
5
10
5
5
7
5
6
6
5
4
7
6
5
8
9
10
7
7
8
6
6
5
7
11
8
9
5
7
7
5
8
11
8
5
1
4
11
3
9
7
8
5
10
8
5
7
3
11
4
13
3
4
5
6
11
7
7
6
8
7
3
1
12
9
5
5
9
4
4
6
2
4
9
10
8
6
5
6
6
9
7
6
6
4
7
9
10
8
6
10
9
6
6
6
10
2
7
4
6
7
3
6
6
3
10
7
5
3
11
4
7
6
8
9
5
8
6
3
8
4
6
6
8
7
5
3
7
6
7
13
6
5
8
7
6
10
7
9
6
6
4
9
6
6
2
8
4
7
3
7
6
6
5
7
6
7
5
2
6
7
9
5
5
6
3
11
4
4
4
2
8
5
9
7
9
6
6
8
7
3
11
9
4
3
11
5
4
3
6
2
8
5
6
4
5
4
10
5
8
4
7
6
1
9
8
5
6
3
6
5
4
7
6
9
8
3
6
5
8
7
7
9
8
9
5
8
7
7
6
9
6
8
8
4
4
4
8
37
183
162
166
118
128
112
140
80
86
86
94
75
68
59
56
54
47
49
50
45
39
42
32
45
36
35
35
29
35
30
25
23
32
30
32
29
23
27
34
34
30
27
22
24
19
22
33
20
19
14
17
23
26
23
18
16
25
16
30
22
22
23
25
18
17
19
20
14
29
24
27
24
25
28
27
24
23
22
23
20
18
12
26
20
18
23
20
19
26
20
17
18
20
22
19
21
30
14
24
21
27
17
17
18
16
19
24
29
19
22
20
21
20
19
19
17
18
20
20
19
18
15
19
22
19
20
22
23
27
21
18
17
25
14
27
25
21
25
26
12
24
24
22
14
34
29
15
14
23
28
25
23
23
16
12
28
23
20
19
17
19
29
23
17
25
19
20
16
26
30
19
25
20
16
19
19
32
20
27
19
23
21
18
17
20
16
22
18
29
26
23
25
22
11
16
26
20
27
12
54
327
241
241
226
211
201
164
189
158
148
140
123
142
113
89
103
96
84
92
72
63
68
76
80
54
60
54
54
57
69
49
44
42
52
46
46
44
34
39
31
34
37
34
38
36
36
34
33
38
29
28
24
26
30
26
33
30
28
37
24
28
33
30
29
37
26
30
19
33
33
31
23
34
26
23
32
27
19
27
34
27
34
33
28
22
29
37
30
37
26
27
29
24
27
32
31
23
36
23
27
38
26
29
30
23
23
22
33
25
28
35
25
30
21
27
25
30
27
23
31
30
26
19
26
34
25
23
32
24
29
38
28
31
16
25
23
16
30
36
32
30
18
27
23
28
24
37
24
27
25
27
25
28
36
19
27
32
32
23
22
26
20
23
32
20
17
27
27
20
29
18
25
30
19
29
22
27
24
32
34
41
27
28
30
34
30
20
29
28
17
21
36
27
30
22
21
31
21
20
19
14
6
6
6
8
7
6
6
7
2
9
0
5
8
5
6
12
8
5
7
2
7
5
8
4
5
9
6
5
4
4
9
10
6
5
10
13
2
7
7
6
6
3
6
7
3
9
8
3
11
6
10
6
6
8
6
2
10
5
5
6
8
4
10
5
3
5
13
6
4
5
3
3
7
8
9
5
8
5
7
10
10
4
5
5
12
6
6
7
3
10
6
4
4
14
6
6
7
8
7
6
8
5
5
7
7
8
4
6
8
8
4
6
1
5
6
3
3
7
9
11
7
5
2
13
3
3
2
6
7
7
6
6
8
2
9
5
7
6
4
9
8
6
7
12
8
6
4
5
6
4
2
3
7
10
6
3
6
6
2
5
8
7
12
4
4
8
8
4
4
3
5
8
6
4
5
3
6
0
5
7
10
3
10
4
7
6
3
3
12
3
12
4
8
2
2
4
6
6
4
4
8
7
6
4
5
4
11
9
5
5
6
5
5
8
8
6
8
7
7
9
6
9
4
7
5
5
6
11
7
8
4
3
3
5
6
7
7
4
13
11
4
9
7
6
4
3
3
7
5
9
7
4
7
9
7
6
3
8
6
10
4
4
31
197
175
156
130
121
111
107
81
86
98
85
80
67
60
55
61
48
62
46
56
38
41
37
30
33
39
31
34
34
36
37
24
28
29
22
19
29
26
31
25
30
22
22
28
32
20
20
23
19
18
21
28
24
26
26
20
22
18
23
29
23
23
25
23
26
26
13
19
26
25
18
23
20
21
18
27
22
15
19
21
18
29
28
15
12
27
24
23
22
27
27
23
22
27
20
15
22
25
22
25
23
18
19
19
23
16
26
23
23
19
14
23
22
25
22
21
17
19
19
20
18
21
22
21
27
27
18
25
20
12
22
19
22
24
19
31
16
20
17
26
27
26
13
23
17
15
23
18
16
14
24
18
26
18
19
19
22
19
18
20
23
19
13
15
29
22
22
26
29
20
21
24
27
21
28
28
25
21
28
30
25
30
22
27
19
33
17
25
28
20
25
19
26
16
8
28
19
18
17
57
340
254
257
224
209
203
175
179
173
139
145
130
114
118
122
86
113
91
111
95
77
92
66
58
70
76
70
57
50
51
47
35
45
46
43
47
35
45
43
34
31
31
32
45
33
30
43
32
48
29
38
33
38
28
34
33
30
23
30
24
30
30
30
30
29
45
28
32
24
34
27
31
40
33
19
26
29
29
26
23
24
24
31
31
19
34
29
23
31
26
18
42
15
25
31
15
32
25
21
28
28
25
24
38
29
30
31
23
32
29
26
29
31
29
25
25
31
25
39
25
23
36
33
19
28
20
28
34
25
21
24
30
19
21
33
27
29
29
25
24
22
30
36
32
28
30
32
19
21
19
21
20
26
22
27
24
26
33
32
22
27
25
28
22
25
18
27
20
32
22
27
35
27
26
22
31
35
24
25
21
31
19
27
28
19
25
29
32
27
31
26
21
26
23
25
29
25
26
24
28
9
6
12
6
4
7
8
4
6
2
5
6
1
4
7
5
8
9
14
4
3
7
4
6
5
5
4
5
8
4
4
9
4
5
6
13
7
5
7
5
3
7
7
6
4
7
13
8
5
11
6
9
7
5
4
6
7
7
8
7
9
7
5
4
6
8
5
11
4
5
5
11
8
6
4
5
10
6
9
5
5
5
6
1
6
4
4
5
6
6
4
8
6
4
4
10
2
9
14
10
6
7
5
3
10
7
3
6
9
5
4
10
7
7
6
8
9
3
6
6
7
4
3
5
4
10
9
2
6
11
7
6
5
6
5
6
5
7
4
11
5
5
3
9
11
5
4
6
8
10
4
5
6
12
6
13
6
6
11
8
6
5
7
13
8
3
4
6
3
7
10
1
4
5
9
13
8
2
6
6
7
2
7
6
5
6
11
7
5
8
8
4
9
6
8
9
14
4
4
4
4
8
9
9
6
12
8
5
10
6
10
12
8
11
5
6
6
4
8
3
4
6
7
4
8
3
1
4
8
4
8
7
8
6
8
7
4
5
7
6
5
8
10
4
8
8
7
9
6
10
6
3
7
9
7
7
6
6
7
9
7
1
7
9
3
6
11
8
5
8
7
4
6
34
173
144
143
150
108
129
111
89
104
71
66
74
68
50
58
54
59
40
57
52
45
46
36
37
41
42
39
30
33
35
27
32
41
31
24
29
22
29
24
24
23
15
18
17
25
29
15
21
15
19
22
27
18
28
20
24
16
21
20
15
27
17
19
26
17
18
18
22
25
18
20
23
28
29
26
20
23
25
21
17
26
21
28
15
18
25
23
32
21
20
22
22
19
17
31
18
16
10
19
23
26
22
24
19
22
20
16
16
18
12
20
27
19
19
26
21
19
28
15
23
19
19
20
33
25
22
16
24
17
22
22
17
25
18
27
23
19
16
27
20
24
27
19
13
22
22
27
22
23
27
25
16
16
24
16
21
19
31
23
24
24
21
20
20
26
19
21
19
16
22
20
28
15
18
22
13
21
22
13
23
18
25
22
18
26
21
20
18
12
17
19
23
30
25
20
24
23
15
16
69
326
260
251
223
222
198
178
170
165
135
140
134
123
116
102
109
91
84
81
78
62
68
70
52
64
58
63
45
42
53
47
50
48
46
33
47
35
38
44
40
34
42
32
39
28
31
30
42
29
28
33
32
37
20
28
25
35
32
36
25
34
23
39
35
34
27
30
22
28
20
37
35
25
27
33
20
37
25
29
32
27
24
33
26
32
22
25
35
24
32
28
23
27
30
41
18
30
24
28
25
22
35
26
23
32
27
27
24
31
27
23
29
21
32
21
29
29
16
33
23
26
29
24
23
21
35
29
19
26
34
17
30
31
38
19
32
18
27
34
30
17
22
34
33
22
29
26
30
32
26
14
18
23
29
27
29
25
32
30
25
23
32
25
29
28
25
27
29
31
29
27
31
31
30
36
24
24
36
24
25
24
32
34
25
27
25
22
25
22
21
28
29
30
29
25
26
27
30
27
26
10
9
9
2
10
3
5
6
5
10
4
6
7
7
9
8
8
9
7
6
6
10
11
4
5
3
5
7
6
0
6
7
3
6
4
7
9
5
9
5
6
11
6
5
11
4
12
5
9
4
3
7
11
10
8
7
6
11
8
12
9
5
8
8
6
6
8
7
9
5
7
4
7
9
6
4
4
3
2
5
7
7
7
5
12
4
9
5
6
8
4
4
10
4
8
5
5
3
9
6
6
7
5
7
9
7
6
4
5
8
5
11
7
6
7
2
10
5
9
7
2
7
3
6
6
8
5
6
7
12
3
8
3
5
9
8
9
9
8
7
4
3
8
13
4
3
7
9
6
6
7
7
5
5
3
3
5
8
5
3
5
5
3
8
5
7
8
10
7
10
9
3
6
4
7
12
7
3
8
4
7
10
10
12
7
9
3
8
5
8
5
12
7
7
4
6
8
6
11
8
4
7
11
3
6
5
10
7
3
4
5
4
7
9
5
5
5
9
9
7
3
4
4
9
4
7
6
8
10
4
7
4
6
1
5
7
7
6
9
9
4
3
11
8
7
7
7
3
5
4
8
5
5
4
11
6
1
12
3
8
7
7
6
8
13
2
8
7
8
8
6
7
6
3
6
8
6
7
5
4
7
5
3
25
177
145
134
112
122
105
95
107
114
67
63
76
70
63
50
56
59
67
52
45
42
47
38
51
39
31
27
33
31
19
21
35
29
26
22
28
36
29
16
16
23
29
15
29
20
25
28
24
25
20
17
18
22
26
19
28
24
15
24
20
22
21
21
26
18
18
20
21
25
24
32
21
24
25
22
33
23
24
40
24
27
17
30
12
19
21
10
15
21
17
19
31
22
18
18
18
25
26
21
20
21
24
19
24
15
16
16
18
29
29
17
25
21
20
28
25
18
22
28
22
18
21
25
20
17
23
19
15
22
32
28
25
27
19
26
20
23
27
11
20
17
25
22
15
10
32
20
31
26
20
27
15
20
13
17
17
25
21
14
19
23
21
18
29
28
23
16
22
19
21
24
28
22
21
21
13
23
32
16
24
19
17
33
18
26
15
31
15
20
26
19
24
24
22
24
23
16
17
20
63
316
222
230
188
204
200
192
166
176
128
144
134
142
117
116
115
101
93
89
87
76
65
64
56
54
72
39
63
60
42
45
52
47
41
47
35
41
41
38
51
33
38
32
43
39
26
35
33
22
29
30
35
34
36
29
27
24
29
34
33
26
25
31
20
34
28
30
25
27
30
25
26
27
35
20
33
29
23
24
23
29
32
22
29
21
43
35
31
29
25
20
33
24
27
36
18
32
26
30
29
25
26
39
20
28
26
25
33
26
27
25
29
33
23
25
24
20
32
28
26
22
27
28
22
27
25
25
26
24
31
29
31
27
35
26
28
30
37
26
26
24
21
15
20
36
21
25
23
22
26
32
13
34
34
25
27
25
30
31
27
15
30
31
36
35
28
17
26
28
31
25
38
20
25
26
22
25
17
23
22
24
26
27
29
24
22
22
36
24
30
31
29
36
34
33
18
24
26
27
24
6
5
8
6
6
5
8
4
6
5
3
12
5
13
7
8
4
4
5
7
4
2
6
9
4
7
5
11
4
10
8
4
7
4
5
9
2
3
3
8
6
9
7
6
8
7
2
10
8
8
5
8
6
6
5
6
7
9
8
4
6
6
4
8
9
9
4
5
12
6
6
13
4
3
7
10
3
6
11
4
4
5
8
9
4
7
11
11
5
5
4
3
3
10
9
4
11
6
4
9
5
9
10
9
7
4
6
3
7
4
7
11
6
6
10
12
7
9
5
5
6
6
4
9
4
5
4
7
5
8
11
4
7
11
10
8
10
8
9
3
3
10
8
2
6
3
5
13
4
3
7
2
4
8
6
7
9
6
7
8
3
4
4
11
2
5
7
5
5
5
9
6
14
7
8
6
4
9
2
17
7
4
3
9
8
6
4
8
8
3
13
5
5
7
9
12
6
6
5
3
10
9
6
6
7
4
2
7
9
7
3
7
7
7
10
7
1
3
4
8
10
6
3
7
4
8
5
5
5
10
9
5
7
5
9
10
10
4
10
5
6
8
6
10
4
4
7
8
4
8
9
4
12
10
7
8
8
6
6
7
10
5
2
11
8
13
6
9
3
8
11
5
13
5
10
8
3
5
11
4
8
2
11
5
6
9
9
8
5
10
7
11
8
27
165
154
150
118
126
114
106
85
84
83
88
81
67
62
66
72
50
52
61
51
39
27
30
51
50
31
36
42
30
40
30
31
19
21
18
33
21
24
28
17
29
26
21
27
25
27
16
22
22
25
27
18
21
26
21
18
22
23
18
25
20
24
18
22
19
18
22
25
26
17
29
26
21
15
26
28
19
30
20
18
28
25
24
18
23
30
19
24
28
14
15
27
25
29
24
18
27
21
22
21
21
14
17
33
20
15
21
27
15
16
21
31
18
21
16
25
21
24
24
21
22
14
23
20
25
28
23
18
21
22
17
27
24
23
24
21
17
18
23
24
21
33
21
31
25
11
25
19
22
17
15
30
32
24
22
20
17
25
24
18
29
15
17
24
14
24
28
25
18
25
23
24
19
22
19
17
18
18
26
31
15
18
21
20
28
23
19
17
12
16
29
30
15
12
21
23
24
22
22
72
318
285
253
225
210
183
188
184
165
159
114
106
130
141
109
88
132
82
74
88
76
80
62
58
73
55
68
51
64
54
54
51
56
40
46
43
42
50
32
43
41
41
39
32
41
51
30
31
42
38
42
28
30
23
29
31
29
33
26
21
27
26
31
31
18
34
34
30
28
28
24
30
22
29
30
34
30
24
27
31
30
38
32
25
24
27
32
19
23
34
31
25
30
30
21
22
28
25
30
17
29
30
29
31
22
27
32
18
21
17
21
25
28
29
19
33
24
32
34
29
34
29
22
32
27
35
27
22
29
24
25
33
33
35
23
29
30
27
30
26
25
25
23
17
27
29
42
25
34
25
27
30
21
26
29
28
26
35
22
36
32
16
30
24
33
20
28
35
27
30
25
30
31
30
20
33
25
30
25
27
21
19
22
24
24
22
28
19
21
30
27
27
25
25
24
32
31
23
28
13
9
8
5
6
9
10
2
8
2
10
7
6
3
4
7
11
1
7
7
9
7
10
0
5
3
6
9
4
4
6
11
6
5
6
9
8
4
11
7
6
2
5
8
8
4
10
5
8
2
4
6
4
3
5
7
9
10
8
5
4
2
6
7
8
6
7
6
8
5
11
6
5
9
6
1
11
4
9
3
10
8
5
10
6
5
4
8
5
9
0
11
5
4
7
4
3
4
7
4
8
8
4
9
8
9
12
9
10
5
10
1
7
10
5
5
6
8
6
6
4
6
7
2
7
5
4
6
7
5
9
6
2
6
8
11
6
5
6
4
5
3
6
15
9
4
7
6
0
6
11
3
6
5
6
12
10
5
4
8
4
10
7
5
3
9
2
3
4
5
6
10
14
7
12
3
7
7
7
7
6
6
6
7
9
6
7
8
3
4
8
9
6
4
9
8
6
7
8
3
15
4
7
8
7
3
10
8
3
3
6
5
7
6
4
7
12
8
9
3
5
9
8
4
12
7
6
7
6
6
3
9
7
5
10
11
8
10
5
3
9
2
7
5
7
7
3
12
8
6
8
10
8
5
5
5
4
6
10
9
11
4
10
5
6
3
8
4
4
6
7
2
10
7
7
4
6
9
8
6
10
5
7
6
9
2
4
10
5
14
7
8
10
8
3
6
5
5
10
6
8
11
7
3
2
3
7
7
5
6
9
5
5
5
4
5
4
5
8
11
4
4
8
12
3
5
6
2
11
6
14
2
6
5
3
7
6
8
4
10
1
7
3
10
1
6
6
12
5
5
7
10
4
8
6
4
0
4
3
4
1
3
6
5
6
5
6
6
8
3
5
10
4
8
4
2
8
10
6
7
5
7
8
2
3
7
1
4
7
4
9
1
4
4
5
3
10
5
4
4
1
10
4
1
5
2
3
2
10
3
3
2
2
9
9
1
4
6
5
3
5
3
8
7
5
5
6
5
6
3
11
2
2
6
6
3
2
4
5
4
11
6
4
8
3
5
8
7
5
7
8
6
6
5
5
4
7
7
5
5
3
2
3
5
3
5
5
1
2
3
3
7
2
5
2
8
4
5
5
8
5
4
6
7
2
7
5
3
3
4
5
4
5
