#Saved Data from the class pulsed_measurement_logic on 18.11.2022 at 13h49m18s.
#
#Parameters:
#===========
#
#bin width (s): 5.0000000000000001e-09
#record length (s): 3.7030000000000003e-05
#gated counting: False
#Number of laser pulses: 60
#alternating: False
#Controlled variable: [4720000000.0, 4720500000.0, 4721000000.0, 4721500000.0, 4722000000.0, 4722500000.0, 4723000000.0, 4723500000.0, 4724000000.0, 4724500000.0, 4725000000.0, 4725500000.0, 4726000000.0, 4726500000.0, 4727000000.0, 4727500000.0, 4728000000.0, 4728500000.0, 4729000000.0, 4729500000.0, 4730000000.0, 4730500000.0, 4731000000.0, 4731500000.0, 4732000000.0, 4732500000.0, 4733000000.0, 4733500000.0, 4734000000.0, 4734500000.0, 4735000000.0, 4735500000.0, 4736000000.0, 4736500000.0, 4737000000.0, 4737500000.0, 4738000000.0, 4738500000.0, 4739000000.0, 4739500000.0, 4740000000.0, 4740500000.0, 4741000000.0, 4741500000.0, 4742000000.0, 4742500000.0, 4743000000.0, 4743500000.0, 4744000000.0, 4744500000.0, 4745000000.0, 4745500000.0, 4746000000.0, 4746500000.0, 4747000000.0, 4747500000.0, 4748000000.0, 4748500000.0, 4749000000.0, 4749500000.0]
#
#Data:
#=====
#Signal(counts)
8
4
3
6
5
5
4
5
3
9
5
8
4
7
10
5
8
37
49
63
60
83
66
67
50
56
80
78
76
80
71
72
58
86
66
66
62
61
69
54
78
65
61
63
64
67
69
61
58
56
59
64
77
67
90
77
73
56
69
63
77
62
55
64
70
60
78
56
55
70
59
78
72
68
68
77
54
29
30
21
15
20
8
21
17
12
20
12
14
11
15
10
18
13
17
17
21
10
9
16
8
14
13
8
12
15
8
15
16
11
5
17
10
8
11
9
10
18
7
3
10
10
8
17
13
8
7
8
12
7
10
15
7
7
7
7
17
59
66
54
52
76
63
71
62
75
64
66
70
74
56
58
67
70
81
77
65
81
66
73
58
71
71
56
53
67
58
69
62
79
81
70
87
57
65
67
64
60
63
87
67
73
78
69
74
63
58
78
61
56
67
78
62
69
83
67
47
32
11
17
25
10
12
16
13
18
9
18
14
14
14
11
14
17
8
14
16
18
9
9
4
8
16
15
14
15
10
15
8
12
5
15
15
8
11
14
12
14
21
16
9
16
15
12
14
9
11
14
8
15
8
12
9
12
11
15
21
52
66
56
75
91
65
77
67
70
61
72
66
71
67
84
72
55
63
64
80
64
62
66
82
62
71
80
61
49
81
62
62
73
67
82
68
72
60
68
73
60
74
74
75
80
71
63
78
67
65
70
56
77
75
77
62
62
51
79
50
25
19
17
24
27
30
17
10
12
16
18
16
20
15
15
9
13
13
18
16
11
8
3
10
13
15
13
10
7
9
14
12
11
19
10
13
12
11
12
13
11
13
9
15
14
7
14
7
15
10
7
15
6
10
13
9
16
9
20
14
47
64
66
70
68
54
92
61
79
57
70
54
76
74
59
69
58
78
70
71
77
81
71
74
60
61
70
71
68
67
73
78
73
70
69
65
78
83
72
75
60
80
64
79
74
47
68
64
60
76
72
82
54
87
79
58
70
72
77
58
27
21
18
23
23
15
14
15
18
20
19
17
12
16
13
16
5
17
11
12
13
13
11
10
13
9
14
8
11
8
12
5
11
11
13
9
11
5
10
22
12
16
13
11
13
13
15
19
7
13
5
11
9
12
16
6
14
12
8
10
52
56
56
62
77
76
83
72
62
55
72
71
71
74
49
57
74
70
73
70
60
59
73
64
49
63
56
76
72
65
68
73
68
72
66
72
79
55
64
75
80
79
84
62
67
73
66
72
77
79
78
60
73
66
74
62
71
57
63
53
27
22
26
24
21
22
14
14
15
15
13
21
18
20
21
15
12
11
15
15
6
14
12
14
12
24
6
11
8
7
11
13
11
16
11
6
9
18
9
14
12
18
10
14
10
16
8
12
15
7
7
12
11
9
18
12
10
12
11
10
55
60
51
62
73
96
70
51
81
70
63
63
80
60
71
75
81
71
84
79
68
85
63
73
73
55
69
64
84
75
62
82
74
70
66
63
63
64
76
58
69
85
71
66
63
72
59
59
81
67
75
74
67
78
75
61
69
72
82
55
29
17
20
20
26
15
21
16
15
19
13
11
13
13
16
10
13
12
11
15
10
12
12
13
8
17
7
12
13
16
10
14
8
18
9
17
13
15
9
10
11
13
6
13
13
17
7
11
7
13
17
11
8
7
10
11
9
11
14
13
48
75
55
57
77
95
82
60
69
69
70
74
79
61
81
78
63
68
73
68
86
68
68
71
67
61
77
65
72
64
57
68
63
68
81
64
67
73
60
68
71
53
60
74
62
88
81
75
71
64
75
68
59
75
71
75
58
70
82
55
38
28
29
18
23
16
20
15
20
11
15
11
16
16
14
19
10
9
16
16
11
7
15
8
18
7
9
16
15
12
7
11
15
18
5
9
13
11
15
10
14
14
15
9
12
18
8
10
11
11
5
13
7
9
13
10
21
10
12
22
58
58
71
60
81
64
79
81
80
65
64
80
58
59
76
75
83
64
72
72
60
65
77
75
70
77
81
86
53
50
74
72
64
71
68
91
63
79
82
61
55
81
85
77
70
87
68
64
57
80
80
74
61
69
69
75
67
58
90
57
23
32
15
27
25
17
20
14
12
16
11
14
15
11
18
16
15
14
19
7
14
11
12
10
12
17
14
10
18
13
13
11
10
4
9
13
7
8
8
9
16
12
8
18
10
16
12
11
14
12
10
10
15
12
15
13
9
14
11
23
51
74
54
60
67
94
73
71
81
63
81
71
70
60
77
74
74
84
66
65
84
53
68
65
78
73
82
73
83
67
61
75
62
85
83
84
66
65
66
78
66
75
63
76
76
74
69
70
65
82
67
61
63
66
75
64
72
80
72
67
38
32
31
24
21
19
16
15
19
20
17
12
16
14
10
15
17
10
18
7
9
11
11
12
12
8
11
18
12
11
11
10
8
22
17
8
13
11
10
10
6
10
11
4
7
4
10
15
12
14
12
6
7
16
18
10
14
12
6
17
59
57
37
62
67
64
69
82
76
68
63
67
67
84
78
75
79
84
98
83
74
80
64
58
91
61
83
60
63
53
76
86
81
63
83
80
78
81
63
70
78
94
70
65
76
66
67
80
81
89
74
85
84
62
84
77
82
76
88
48
32
26
18
16
20
21
12
17
10
15
11
12
15
8
13
11
13
9
12
15
10
24
12
18
9
10
13
8
6
15
13
10
18
21
9
14
10
17
11
12
11
10
9
13
7
11
11
10
9
11
13
13
8
11
13
15
10
12
14
11
65
58
59
63
71
80
105
75
61
70
89
72
72
75
87
66
77
63
72
62
71
83
73
78
79
66
86
80
61
79
60
71
72
78
61
61
88
63
72
88
72
71
64
82
70
68
77
67
81
67
91
67
63
66
71
69
82
65
79
65
26
38
29
29
26
27
14
11
13
18
16
13
20
21
11
11
12
9
11
12
11
27
14
9
8
10
14
13
9
13
11
5
13
16
10
7
9
7
10
15
13
18
14
11
9
14
9
8
15
13
9
8
14
13
17
9
20
14
12
21
52
61
62
71
80
80
78
85
78
80
75
71
76
74
75
84
81
76
79
78
64
64
75
78
84
67
73
54
70
67
83
77
69
71
73
83
84
72
68
62
67
73
64
72
63
75
76
72
89
65
72
70
71
78
71
75
68
63
85
58
30
29
23
25
30
17
20
19
19
14
14
15
11
23
13
11
16
11
12
14
16
14
13
14
6
16
14
12
14
11
9
9
9
9
13
16
11
14
10
16
17
14
11
15
10
11
13
9
12
13
8
9
5
9
16
11
11
4
11
12
55
52
81
59
72
64
82
78
99
76
77
75
86
61
76
75
65
74
73
71
68
81
82
85
71
83
72
77
74
69
83
74
77
85
64
79
75
81
76
73
70
78
84
87
86
55
79
81
63
75
78
83
83
87
90
72
73
75
59
63
25
31
23
28
21
28
17
21
13
22
23
22
14
11
12
17
15
14
16
15
15
11
7
12
11
12
10
12
10
15
9
9
14
13
14
13
13
17
10
9
18
14
7
14
12
8
11
15
8
10
9
13
15
6
13
15
8
15
15
20
43
55
64
71
57
78
95
84
94
95
77
82
79
75
56
82
85
79
84
84
86
71
85
73
80
85
94
83
70
68
68
80
73
78
77
79
72
68
93
72
83
84
84
95
86
91
72
68
64
85
76
79
80
77
73
66
59
91
83
65
42
29
26
26
19
25
16
11
23
17
11
9
21
11
17
11
11
13
18
16
17
13
15
7
12
9
15
11
13
15
12
15
11
9
8
13
14
13
9
11
9
12
10
6
11
9
16
13
7
14
9
13
10
12
11
11
6
5
17
20
60
59
45
74
69
74
76
83
93
80
96
76
87
69
68
65
81
71
83
71
92
68
91
94
91
87
63
97
74
84
79
76
87
70
79
82
83
86
80
96
88
78
78
87
80
86
80
79
72
77
89
84
74
73
76
83
70
70
69
65
37
56
34
33
13
25
19
20
22
18
17
16
13
13
15
19
19
17
10
10
10
11
6
8
12
17
12
14
14
10
9
10
15
20
10
13
12
16
12
10
6
11
11
15
12
9
12
16
11
8
15
8
14
10
12
12
10
14
8
8
62
61
55
53
92
80
77
92
85
84
75
73
90
62
83
69
87
61
70
67
75
82
86
81
74
73
74
84
80
79
76
68
70
72
78
53
73
77
78
66
58
76
77
93
85
64
72
71
73
88
86
91
72
90
76
81
65
81
69
56
39
32
22
35
25
19
27
15
11
14
15
20
18
13
14
13
16
14
10
13
13
12
8
9
19
10
17
10
17
10
14
12
4
12
9
13
17
11
14
5
11
8
15
8
17
9
9
7
12
9
15
12
10
12
12
6
15
9
13
21
46
48
44
49
64
74
95
91
85
92
71
89
80
92
82
87
76
81
65
80
78
68
78
86
78
78
72
84
77
67
80
81
66
71
60
79
74
89
80
83
76
72
73
70
79
66
73
63
89
71
79
85
80
67
68
78
55
93
78
63
39
36
40
34
27
20
24
19
22
20
12
13
16
18
19
10
11
11
14
11
16
11
19
8
13
13
18
14
11
9
8
10
10
14
7
12
10
9
10
10
14
15
13
11
13
16
25
10
11
13
8
11
9
4
11
4
10
11
10
19
68
57
65
61
59
69
83
80
71
79
76
76
74
83
91
78
59
81
87
73
70
77
86
78
97
77
63
76
68
80
81
78
79
93
80
94
63
57
79
87
79
66
74
79
96
86
65
103
62
77
73
86
64
80
82
65
80
73
71
63
26
33
27
38
45
30
31
16
26
11
15
25
25
11
9
15
15
15
9
12
17
16
12
8
14
9
9
11
9
15
13
8
18
11
16
8
25
8
11
10
16
6
10
9
8
13
14
8
13
16
14
13
12
5
9
9
11
12
10
13
56
68
61
59
54
68
77
75
91
85
93
68
75
75
86
74
68
87
87
77
84
69
77
74
82
95
65
88
74
80
68
71
75
89
75
70
95
64
65
68
70
76
79
77
67
79
87
75
92
87
91
84
67
75
73
78
81
79
76
51
37
49
52
34
25
38
19
22
27
16
23
22
13
16
14
18
8
17
16
13
13
10
20
15
16
14
13
12
8
13
15
18
21
13
7
10
11
7
11
14
8
17
11
20
9
11
12
16
6
9
13
8
10
13
5
7
16
8
8
13
61
67
52
55
61
69
59
70
74
81
67
81
94
65
80
65
79
76
84
67
74
80
86
61
70
71
85
66
74
70
80
69
90
54
77
63
64
74
77
81
73
65
76
68
61
73
76
67
66
68
64
61
70
71
59
70
74
81
75
56
38
54
42
36
34
27
26
31
24
12
17
14
20
12
16
9
13
11
13
22
12
12
12
12
15
13
16
16
12
11
18
10
9
9
10
12
8
10
15
19
11
15
11
8
17
15
6
16
13
12
12
12
16
11
7
13
14
9
6
9
63
72
67
51
64
61
51
73
62
83
81
79
75
69
71
72
78
74
69
86
71
62
81
65
58
71
84
84
78
69
61
83
72
78
73
59
66
82
87
72
62
76
81
82
77
71
76
99
80
65
76
73
64
74
75
73
83
68
62
58
42
50
34
46
28
31
39
21
27
18
16
24
12
20
12
25
13
16
15
13
12
12
16
10
9
8
10
11
7
15
13
14
13
16
9
14
14
15
6
13
13
10
9
10
9
13
10
21
18
9
13
13
20
5
9
9
10
12
10
18
62
53
49
49
55
59
63
53
55
56
69
71
66
71
54
83
78
55
74
72
80
75
75
74
67
62
57
71
57
65
73
67
67
62
71
78
78
88
66
81
85
69
68
68
75
62
63
66
68
59
71
76
79
81
87
79
68
82
71
57
54
56
46
38
33
30
31
20
19
24
22
14
26
25
16
17
9
19
21
15
13
17
26
11
11
5
9
10
10
11
10
13
12
19
6
16
13
13
12
20
13
12
16
8
12
4
13
13
13
11
8
7
5
10
8
14
13
12
11
21
55
65
45
44
60
51
57
64
61
51
42
71
50
53
57
58
70
57
72
70
55
66
63
52
70
62
61
73
67
78
79
56
91
61
68
66
57
77
76
75
66
69
75
84
59
66
63
71
78
57
62
53
61
65
68
59
61
69
74
54
47
56
43
35
35
27
43
30
25
22
22
18
15
8
17
14
17
16
7
13
15
25
10
20
8
5
15
15
13
7
11
11
10
14
7
17
10
18
20
7
6
14
17
20
7
20
15
10
11
9
17
11
14
6
10
12
17
9
12
9
70
58
58
51
68
44
40
47
52
50
48
53
56
61
61
61
63
62
70
65
33
54
63
69
67
66
54
62
61
71
50
48
67
67
69
74
75
60
58
48
73
64
57
43
67
54
64
63
62
54
59
78
59
77
58
65
69
56
52
47
57
57
53
60
42
33
24
28
35
26
16
21
16
26
13
18
17
13
15
15
18
11
12
16
16
13
9
15
14
14
13
8
9
8
14
18
10
10
11
11
13
9
14
15
8
11
17
6
7
14
7
15
7
14
14
8
6
8
11
19
56
64
45
54
55
38
49
52
46
48
59
51
57
59
57
59
61
50
54
64
47
62
53
52
56
53
60
55
58
50
52
66
71
57
48
68
62
47
48
49
60
45
52
52
48
42
47
34
63
64
62
66
58
46
48
55
54
50
54
36
72
76
65
43
47
33
49
42
25
29
21
19
25
19
20
24
16
20
10
18
16
13
12
9
13
14
9
8
18
13
16
13
10
14
9
8
11
11
12
9
9
18
12
14
18
6
5
13
11
11
7
6
10
16
11
14
12
18
9
12
66
69
52
53
49
50
49
57
40
42
49
39
42
48
36
39
47
40
43
58
48
49
51
44
45
41
42
52
54
45
38
47
41
52
57
61
40
49
47
50
52
39
49
45
42
40
49
42
52
38
61
35
59
47
47
60
46
38
43
49
62
62
73
56
47
43
41
26
32
33
31
23
27
20
17
11
19
12
19
7
14
13
13
13
9
17
12
18
11
16
16
6
19
12
8
10
11
12
12
20
12
10
7
15
12
9
11
11
8
9
16
12
9
10
13
14
10
10
14
17
55
63
49
57
47
42
41
43
32
44
36
47
40
34
32
33
35
48
40
41
35
34
41
37
27
39
36
38
29
49
41
37
39
38
36
33
36
41
48
33
36
41
33
31
46
38
37
37
37
35
28
36
33
31
41
41
37
42
32
31
83
79
65
57
48
49
38
34
37
28
25
19
32
24
19
16
26
16
18
16
16
18
8
15
13
11
18
9
5
8
28
11
14
13
11
14
14
10
15
14
9
14
12
5
12
15
9
11
8
10
12
11
10
9
7
10
13
11
9
22
46
58
61
62
46
48
37
42
35
38
30
27
33
29
31
27
19
17
40
32
23
30
23
15
24
21
27
33
34
18
35
28
30
45
33
31
31
31
25
27
28
30
33
30
30
32
35
27
25
25
32
28
32
25
29
36
29
23
27
26
86
82
71
62
69
42
51
37
31
24
37
19
20
23
19
25
11
17
20
16
13
10
19
11
7
11
11
15
15
8
10
14
9
13
11
13
18
10
6
12
11
10
10
16
12
15
14
11
17
13
3
8
12
5
14
11
11
12
8
13
63
75
53
44
48
26
42
39
23
24
30
17
33
22
25
22
18
18
19
26
22
13
17
23
19
22
18
20
16
9
18
23
20
20
21
16
19
18
16
25
28
16
24
19
24
22
25
23
19
14
16
14
24
15
17
13
21
12
16
23
78
91
71
66
53
40
45
38
48
26
37
25
29
21
21
14
23
13
17
17
10
23
9
15
10
12
13
11
10
14
17
8
6
10
10
8
11
15
15
10
12
9
8
7
10
9
10
10
10
10
7
12
8
13
14
16
9
12
8
18
77
51
58
29
50
32
30
30
27
30
23
31
9
16
12
9
27
14
27
12
9
7
22
14
14
9
11
15
8
15
5
13
11
15
7
24
10
10
10
14
15
12
11
9
8
10
12
9
11
11
11
14
13
17
15
11
11
15
9
15
77
78
80
81
70
61
49
43
32
37
24
32
19
24
25
22
27
23
20
12
20
11
24
17
20
22
9
14
10
13
25
11
14
13
10
10
14
15
10
21
18
12
12
11
12
13
18
8
19
9
6
6
7
11
10
9
11
15
7
13
57
68
52
49
44
32
36
40
24
19
29
15
16
15
13
23
14
13
17
17
13
7
12
13
11
16
14
12
11
8
7
10
11
10
7
11
7
4
8
8
7
13
5
10
13
12
5
6
13
9
8
11
5
11
10
8
8
8
7
14
82
100
60
60
67
59
39
44
25
41
34
17
24
21
19
25
13
23
15
10
20
14
9
15
8
14
13
22
7
12
12
8
11
19
9
13
9
18
15
14
13
17
6
19
15
17
8
13
11
9
7
10
16
16
18
14
16
14
10
18
54
79
56
46
36
39
23
32
18
28
21
15
14
9
11
19
10
17
13
8
9
11
18
11
11
11
8
12
18
12
6
9
9
9
9
6
16
6
13
8
7
13
14
17
15
12
13
7
9
14
11
17
17
12
15
15
15
14
11
20
73
87
77
73
56
59
42
33
35
33
31
22
28
27
23
19
19
19
9
21
12
19
15
11
12
12
20
20
10
13
9
12
15
10
11
13
3
16
9
19
12
12
11
8
14
10
9
8
9
14
10
12
8
14
8
12
10
14
8
16
58
58
46
37
50
38
30
25
24
17
22
17
20
17
12
11
20
24
25
16
18
25
22
15
20
19
20
21
21
18
17
19
14
19
18
22
14
16
15
14
22
15
20
13
19
19
8
14
26
13
23
23
17
18
14
20
19
22
18
21
77
59
75
60
54
46
44
36
38
17
32
26
9
20
19
26
14
13
11
9
17
10
13
10
17
11
19
13
14
11
5
15
15
9
13
13
9
11
11
20
10
16
11
8
9
12
15
7
11
14
11
19
11
13
5
11
14
6
6
12
55
73
62
48
35
39
35
28
22
25
35
28
27
18
23
28
25
14
20
23
21
21
25
28
37
33
22
31
20
18
34
30
23
27
27
35
22
26
29
27
23
23
34
33
13
27
30
19
36
28
24
25
26
32
28
18
24
30
26
29
79
72
69
57
54
40
38
35
34
26
22
15
21
19
21
24
12
15
10
13
11
15
25
15
11
11
20
10
7
14
14
12
16
11
5
13
13
14
9
7
5
10
9
20
9
12
12
13
8
8
10
11
10
19
12
19
6
11
7
19
67
57
58
51
48
34
27
31
31
32
28
26
37
31
24
30
29
34
35
33
23
35
34
32
31
25
43
29
30
50
28
33
37
35
35
45
34
36
37
28
37
43
40
37
32
36
42
29
36
28
31
47
24
31
33
37
34
34
31
35
53
72
58
41
37
39
28
25
29
26
24
24
25
21
16
22
12
9
18
11
13
10
10
14
10
12
10
17
14
11
12
14
12
11
10
16
22
11
14
13
8
8
10
10
12
15
9
17
18
14
19
13
10
11
10
16
14
13
12
16
60
75
57
45
42
38
37
34
26
39
33
33
26
46
39
39
41
43
33
38
52
40
40
38
41
44
43
46
46
39
52
34
38
30
43
44
34
35
46
50
37
38
26
42
43
41
51
36
48
30
45
41
49
46
44
41
48
28
39
32
60
66
38
40
43
27
30
28
30
22
17
25
21
15
21
17
14
19
13
15
14
12
11
13
12
17
7
16
19
6
11
14
10
9
11
17
3
15
15
11
10
11
12
11
9
12
11
7
14
13
8
16
11
6
5
7
18
12
5
17
51
72
54
40
42
35
38
29
31
29
46
33
38
35
45
53
50
42
38
38
37
55
42
55
57
46
47
52
48
38
71
42
60
41
43
51
58
34
43
41
45
37
52
33
38
37
54
53
50
52
56
57
57
50
44
50
55
46
56
34
43
41
35
31
36
29
31
25
17
18
21
26
14
17
17
20
17
18
9
11
13
15
13
11
9
9
11
11
5
8
10
11
12
12
21
8
8
10
9
12
11
8
8
8
15
15
14
14
11
12
12
15
11
8
5
15
7
15
15
14
56
66
64
60
41
31
40
38
42
29
42
46
52
40
43
56
59
46
60
60
48
60
40
60
54
47
63
47
50
54
47
42
56
56
57
52
54
50
48
54
53
43
50
62
58
45
49
56
47
54
43
46
58
45
54
45
57
57
53
53
38
52
41
25
36
34
27
23
23
18
13
17
15
14
12
10
15
14
16
16
11
13
11
11
17
10
20
11
11
9
13
12
13
14
10
19
13
10
13
11
13
7
10
9
13
9
11
13
21
18
14
8
15
4
15
17
15
10
9
19
65
70
56
67
44
42
39
38
52
56
48
40
45
55
60
42
62
46
61
65
65
54
52
57
65
58
54
40
60
47
57
54
57
48
56
49
63
62
55
50
57
57
55
62
45
65
37
54
63
58
49
62
53
43
56
45
60
61
43
50
41
58
36
27
37
25
21
21
25
26
16
21
17
22
18
25
13
15
15
14
22
12
13
12
16
11
12
8
9
7
5
8
12
14
11
11
11
10
9
10
8
13
10
11
10
12
13
15
10
17
9
15
12
10
8
10
13
10
10
15
59
74
64
50
55
38
50
45
56
57
63
58
49
83
61
61
72
63
50
52
69
52
67
60
49
64
61
52
64
71
49
57
66
63
75
72
57
66
60
66
52
49
55
49
45
62
65
54
65
66
64
55
45
67
62
70
63
48
50
46
38
45
31
25
23
23
30
25
24
19
20
13
17
17
17
10
10
17
8
14
9
12
16
13
10
10
15
5
10
16
17
11
13
9
13
4
15
18
5
13
4
12
17
13
12
13
10
12
6
10
7
6
14
4
11
12
6
11
7
16
53
78
52
58
48
47
48
50
48
74
76
65
62
72
69
72
60
60
68
72
56
64
63
58
70
61
61
70
60
45
82
62
74
57
66
49
66
56
75
69
64
65
77
57
66
69
68
71
65
60
81
71
67
74
76
60
50
42
64
45
51
25
24
26
28
26
18
23
17
22
25
15
19
17
16
21
14
9
19
19
20
6
9
14
14
12
11
12
10
18
22
8
11
11
13
15
8
9
16
6
13
13
3
12
9
9
7
12
7
13
11
7
15
10
11
11
13
8
15
12
49
76
54
42
56
51
54
52
64
64
58
66
66
66
62
64
55
74
57
69
76
60
56
69
61
68
70
75
63
65
70
76
65
52
67
70
60
57
64
69
72
63
64
67
61
69
80
63
61
56
62
62
66
58
73
66
69
54
53
62
48
30
42
18
30
20
10
24
13
19
14
14
13
16
10
8
12
11
16
17
22
14
8
13
10
9
14
11
13
5
10
16
15
7
8
16
11
16
7
9
17
7
8
15
11
12
11
12
11
12
7
14
11
10
19
10
12
14
10
16
62
66
75
42
49
46
64
80
66
69
72
77
71
75
53
73
65
72
76
60
72
61
60
66
53
68
67
82
56
72
57
75
60
62
76
68
66
54
64
62
67
56
61
64
60
64
71
69
67
68
78
65
57
75
67
64
59
62
55
48
41
47
30
34
24
21
26
17
9
15
20
17
18
15
18
14
15
13
15
8
16
9
10
10
9
6
17
12
16
12
7
12
8
10
15
13
10
9
9
13
10
18
14
13
21
12
7
4
13
13
10
9
16
14
12
9
10
11
9
23
47
79
71
50
66
48
53
82
68
49
70
85
70
56
67
66
60
61
69
65
70
62
63
71
76
73
71
68
70
72
84
83
66
62
81
83
72
69
61
69
68
69
77
79
57
58
58
56
61
67
71
63
88
56
76
75
68
64
73
56
30
30
29
20
10
17
14
16
16
21
14
20
14
9
18
17
16
16
14
15
10
11
17
8
15
12
12
11
12
16
17
12
10
17
10
6
14
14
10
20
16
14
14
11
12
7
6
14
15
10
12
14
11
11
13
15
10
10
16
21
44
73
68
50
51
54
64
88
79
68
77
57
75
79
81
60
77
62
61
72
71
67
82
76
82
62
64
78
82
59
75
56
64
69
67
79
68
65
82
63
61
61
60
64
73
69
69
77
75
86
73
83
80
67
82
73
87
79
82
44
29
36
28
32
18
25
18
16
15
18
16
19
10
11
19
18
10
8
16
11
19
22
14
16
14
15
14
21
8
13
8
9
14
20
14
5
9
11
8
12
12
10
13
10
13
9
7
10
4
13
16
9
17
14
16
9
17
15
12
15
53
77
59
55
65
58
82
87
71
80
82
77
81
63
73
62
64
51
69
55
65
77
68
92
82
59
65
74
81
66
79
81
97
70
70
67
81
69
80
73
74
72
59
62
59
81
82
78
71
65
63
67
83
77
62
63
82
60
65
60
33
47
40
30
24
33
14
15
23
20
18
16
9
14
18
10
14
11
7
17
13
16
14
11
7
9
13
9
13
6
14
13
11
9
8
8
12
7
11
6
10
12
13
8
6
7
14
14
14
11
8
7
12
13
14
21
13
9
8
18
59
60
60
49
47
69
62
89
96
69
80
78
78
80
66
65
61
79
77
68
77
58
72
57
67
91
65
76
81
88
73
83
80
71
77
69
85
65
73
73
89
72
69
75
54
73
75
85
71
63
62
75
73
69
76
84
76
81
75
60
31
29
29
28
19
18
15
21
16
20
19
12
14
9
10
10
16
8
13
18
17
11
20
11
14
12
9
17
10
7
16
9
20
10
11
9
9
11
9
16
15
12
16
13
17
17
10
21
10
12
18
14
12
7
12
10
13
10
9
17
56
59
62
57
55
67
62
67
78
90
83
79
69
77
86
78
68
72
68
76
82
77
88
64
78
85
88
83
75
78
65
83
83
69
73
85
68
73
76
84
67
73
67
77
84
78
71
80
76
70
68
74
63
85
67
90
87
71
69
59
27
32
27
22
23
23
20
15
11
14
14
21
17
10
12
6
10
19
5
9
13
14
11
18
14
7
6
11
13
16
8
13
15
7
15
9
11
10
9
15
10
9
9
11
9
9
6
12
9
8
10
14
13
16
16
11
17
12
12
16
53
64
63
52
56
73
74
74
79
74
90
63
76
79
76
96
83
80
83
82
80
92
77
71
71
75
70
73
66
76
82
75
70
78
93
79
79
94
78
71
88
75
75
67
78
68
67
75
100
85
75
72
72
80
78
74
81
66
68
49
36
20
32
26
19
22
18
15
24
10
12
12
16
13
17
22
12
8
17
9
9
10
10
12
7
10
16
8
8
10
13
9
12
12
12
12
10
12
5
13
8
13
13
15
11
12
9
13
10
7
15
11
10
12
17
8
15
16
16
11
65
66
59
63
76
78
79
75
67
80
64
80
82
86
66
74
97
77
72
72
76
93
68
75
76
68
84
94
72
82
87
83
89
72
66
78
92
85
79
73
76
75
65
86
73
66
64
75
78
91
83
84
77
72
76
63
80
71
82
66
35
24
28
20
16
17
19
15
19
17
13
11
13
13
10
15
7
12
11
16
15
10
12
13
19
21
14
7
11
7
7
18
10
13
14
14
10
9
7
15
14
11
16
14
8
8
14
16
14
9
4
16
14
14
15
12
10
17
12
16
69
68
64
68
70
81
94
71
87
83
70
96
74
101
72
69
74
78
59
62
65
79
71
72
63
83
83
75
75
80
78
81
76
95
77
91
76
67
78
80
68
91
78
81
78
85
77
66
97
92
60
72
73
63
72
84
87
65
68
71
30
27
25
18
20
16
19
19
17
19
20
11
11
12
13
12
10
12
11
15
18
12
15
17
10
19
9
10
11
10
9
10
10
7
10
14
10
8
10
9
7
17
10
14
12
11
16
11
9
11
10
10
4
12
7
9
20
11
15
11
62
52
60
70
82
79
86
87
95
70
68
79
77
85
64
93
76
70
65
83
78
86
77
73
85
71
69
81
85
73
82
73
68
84
74
89
68
50
85
69
65
74
69
80
86
76
70
60
63
95
93
74
68
71
68
77
75
71
90
55
23
24
23
19
20
20
15
22
16
19
19
9
13
14
12
16
13
18
15
6
10
15
8
16
11
12
3
15
15
8
9
12
11
17
10
14
10
21
9
12
9
17
8
15
12
21
14
7
10
15
13
16
10
10
18
12
13
10
12
7
52
57
55
68
79
74
78
87
78
69
64
74
84
78
69
82
78
90
74
85
63
88
61
74
70
72
77
69
82
64
74
85
76
75
83
65
86
87
84
78
91
82
96
70
87
83
61
78
96
69
79
68
92
77
76
72
89
73
73
58
37
27
22
27
18
19
20
17
14
13
19
8
19
10
14
10
16
9
13
14
15
8
15
16
12
14
13
9
15
12
8
19
10
6
15
9
17
12
9
11
19
10
7
11
16
9
14
7
10
17
17
9
6
11
9
11
13
16
17
14
47
74
68
59
77
86
76
71
93
71
70
76
76
70
93
74
87
70
86
79
78
79
79
64
77
63
83
86
86
84
87
81
64
74
80
82
97
65
80
77
82
63
75
89
81
94
65
75
70
87
86
82
93
73
76
74
71
90
73
57
28
28
24
18
19
26
17
14
14
14
13
19
10
15
11
12
15
16
10
12
22
9
14
10
7
14
9
8
12
10
13
15
7
14
10
11
9
10
7
8
17
15
11
16
9
10
12
12
10
17
11
10
9
11
14
14
9
11
11
19
60
60
56
45
74
84
84
67
64
71
83
82
82
85
90
77
76
82
73
71
78
84
70
82
98
93
74
71
67
79
82
59
69
76
84
71
78
65
72
89
86
83
82
81
89
93
72
69
78
94
79
77
74
74
89
82
60
82
88
58
31
25
16
26
18
18
17
14
14
19
13
19
20
16
17
12
16
16
12
13
15
11
5
10
4
12
10
5
9
13
7
10
11
16
11
11
4
11
12
3
13
12
14
6
13
13
15
15
7
9
13
11
10
15
10
15
6
6
13
13
69
56
63
64
87
75
96
81
78
75
72
72
81
82
73
84
88
70
66
76
99
78
83
82
76
80
88
79
74
79
80
103
84
91
92
67
101
79
75
79
99
96
69
89
67
79
73
88
80
92
85
98
88
77
96
72
65
55
83
75
27
31
24
27
21
21
16
13
10
14
7
13
20
14
11
12
17
17
18
17
11
10
14
13
9
11
10
16
9
12
14
9
11
21
19
12
11
12
14
8
12
7
6
11
9
8
8
11
15
11
7
20
19
14
13
8
10
15
14
19
62
79
58
83
64
90
64
85
88
80
81
76
75
85
77
78
77
68
84
101
99
80
83
79
89
78
88
70
86
81
78
70
82
70
77
80
90
81
74
78
80
73
89
70
79
74
84
83
82
81
104
79
76
82
70
80
79
89
72
49
31
24
20
21
22
20
18
19
20
10
18
11
11
16
13
21
10
11
10
17
8
10
16
14
17
10
9
13
8
13
10
13
11
20
12
17
9
8
20
14
9
10
7
6
16
4
8
9
10
14
8
17
7
13
11
8
13
11
12
18
52
62
79
79
88
73
96
85
58
75
69
83
101
70
78
84
80
79
79
91
90
74
82
83
84
66
83
83
84
77
78
71
75
66
72
91
76
87
82
93
76
89
61
67
78
75
92
93
102
75
87
90
81
85
87
74
83
80
80
65
45
28
32
17
29
17
16
18
21
16
18
13
12
28
12
13
16
17
10
12
17
13
15
14
14
9
12
16
11
17
9
10
14
10
4
11
17
9
10
10
15
17
12
13
14
11
6
15
5
10
13
13
9
10
7
13
18
11
9
17
57
78
67
73
82
94
85
65
80
75
100
94
76
81
69
79
78
76
77
94
82
97
79
89
81
78
82
80
99
85
86
78
86
83
91
82
80
68
74
81
80
82
91
82
67
83
87
78
73
72
74
76
88
93
77
77
102
93
80
66
30
25
21
19
22
22
19
25
17
18
26
13
17
15
7
12
16
13
9
10
11
11
14
12
13
13
12
15
10
10
14
13
6
3
9
11
15
15
6
12
12
17
16
12
8
15
13
12
9
12
14
12
13
14
8
16
18
4
9
13
61
68
77
79
85
83
72
95
79
70
99
78
92
80
79
85
92
73
68
73
76
82
75
100
78
79
78
73
70
93
93
94
85
80
70
73
87
73
73
78
86
79
60
85
68
72
80
76
93
76
79
81
79
80
98
100
72
83
94
51
35
24
23
18
23
28
14
16
15
19
11
13
19
12
16
13
12
10
15
17
15
9
9
6
5
15
7
9
12
13
11
7
11
13
16
8
15
13
12
14
15
12
9
12
12
10
13
12
14
12
12
16
14
9
16
10
10
8
12
7
12
11
7
4
5
4
3
9
4
4
8
5
3
4
4
2
5
4
5
3
7
6
7
6
10
4
7
8
7
8
5
9
9
9
5
9
8
4
5
5
4
3
6
6
5
5
6
6
6
5
9
7
5
3
3
2
7
7
4
10
7
5
6
4
9
6
8
6
7
11
6
10
9
10
9
3
4
8
4
9
6
2
9
9
7
4
8
6
8
4
8
10
6
11
9
4
8
3
6
6
6
7
9
5
7
3
10
7
9
4
7
6
7
7
6
12
3
9
13
6
7
8
8
6
4
3
6
4
3
7
7
4
9
7
9
10
5
7
8
8
2
10
3
6
5
10
3
6
3
6
5
6
9
5
4
9
7
8
6
7
3
6
7
3
3
7
11
6
3
6
7
4
9
4
8
8
7
6
6
5
6
7
5
4
4
2
8
5
8
