#Saved Data from the class pulsed_measurement_logic on 18.11.2022 at 13h30m02s.
#
#Parameters:
#===========
#
#bin width (s): 4.0000000000000001e-08
#record length (s): 9.3079999999999997e-05
#gated counting: False
#Number of laser pulses: 40
#alternating: False
#Controlled variable: [4700000000.0, 4702000000.0, 4704000000.0, 4706000000.0, 4708000000.0, 4710000000.0, 4712000000.0, 4714000000.0, 4716000000.0, 4718000000.0, 4720000000.0, 4722000000.0, 4724000000.0, 4726000000.0, 4728000000.0, 4730000000.0, 4732000000.0, 4734000000.0, 4736000000.0, 4738000000.0, 4740000000.0, 4742000000.0, 4744000000.0, 4746000000.0, 4748000000.0, 4750000000.0, 4752000000.0, 4754000000.0, 4756000000.0, 4758000000.0, 4760000000.0, 4762000000.0, 4764000000.0, 4766000000.0, 4768000000.0, 4770000000.0, 4772000000.0, 4774000000.0, 4776000000.0, 4778000000.0]
#
#Data:
#=====
#Signal(counts)
7
8
58
58
47
49
49
60
60
28
6
9
3
10
7
6
6
3
13
8
6
9
4
6
7
8
7
10
8
9
2
6
3
6
6
5
6
4
6
7
9
5
10
4
9
6
9
7
5
12
10
6
5
5
5
8
3
3
8
25
54
71
61
63
49
66
60
18
8
8
10
4
10
8
4
7
13
6
7
3
6
6
7
7
6
6
2
4
6
5
7
8
6
7
4
11
10
8
8
10
7
4
8
7
3
12
4
4
9
1
7
11
6
10
6
9
7
57
55
59
72
48
65
69
47
10
5
5
11
8
3
9
10
8
6
5
3
3
7
6
10
9
4
8
6
7
6
10
9
5
6
6
6
10
4
4
7
10
10
4
4
13
2
10
2
8
3
8
11
4
7
8
6
10
29
57
79
70
61
69
62
59
11
11
8
7
5
13
8
9
6
9
11
4
4
7
9
9
10
8
5
4
7
3
5
10
6
9
6
8
6
10
3
7
6
12
6
4
7
7
8
4
3
6
6
7
6
15
6
6
7
13
70
71
72
56
67
71
66
46
9
9
7
6
4
15
10
6
8
7
10
9
9
9
11
4
9
4
15
8
9
8
7
5
3
11
5
4
5
7
6
4
3
9
5
10
6
5
7
1
19
4
4
2
10
10
6
9
5
35
77
65
59
71
72
67
59
13
10
7
7
6
6
9
12
6
5
9
6
5
9
5
9
9
8
11
9
10
4
9
7
8
6
1
7
6
9
4
7
8
5
3
4
8
6
9
10
7
7
7
9
10
4
4
3
6
11
58
71
94
88
71
89
88
50
6
4
9
13
5
8
8
7
10
8
8
7
8
5
2
7
5
8
8
6
11
7
3
5
6
5
8
3
5
5
10
10
9
9
4
4
5
5
6
5
4
8
8
7
5
8
8
5
8
36
91
94
82
84
87
84
66
12
11
7
9
9
6
9
7
9
6
8
8
8
11
4
10
7
6
8
8
8
8
11
8
7
5
7
8
5
5
4
7
6
7
4
10
11
6
2
9
14
10
10
2
11
4
8
9
9
5
76
96
98
83
95
99
91
49
7
12
9
7
10
10
13
7
12
9
3
11
5
3
5
10
13
10
9
5
6
9
11
3
3
6
6
12
5
8
6
6
4
8
4
11
9
4
10
13
9
9
9
7
5
3
13
8
8
25
98
102
83
107
96
91
86
17
11
12
12
9
5
9
5
7
4
5
15
14
7
7
7
9
6
8
3
9
11
4
6
6
3
7
4
6
8
3
5
2
5
16
8
8
8
6
7
7
10
8
13
6
8
10
3
10
9
100
86
97
81
113
99
108
66
9
12
4
5
9
7
5
9
10
5
6
7
9
12
9
4
4
8
7
7
4
5
5
5
7
5
3
8
12
3
8
5
9
6
12
7
6
7
3
9
8
7
4
6
8
6
12
7
6
34
107
98
82
89
110
95
117
30
6
11
8
8
5
6
9
6
8
8
5
7
6
6
8
3
11
7
1
9
12
7
6
9
6
5
6
8
5
8
11
10
6
11
9
2
4
7
10
9
6
8
8
3
5
9
8
4
8
87
119
108
120
98
121
95
71
14
6
8
7
6
8
12
6
7
6
4
10
4
13
7
7
9
6
5
5
7
4
4
11
4
6
10
5
9
6
5
13
7
9
14
10
9
9
10
6
5
6
1
8
4
12
6
6
6
29
111
99
98
90
102
99
106
21
9
10
7
10
6
9
9
13
6
10
8
7
13
9
7
10
6
3
6
7
4
3
9
6
3
7
5
3
6
7
5
10
2
6
3
7
5
3
7
6
10
5
8
10
6
11
8
3
8
73
103
103
101
96
112
97
59
17
13
10
15
6
11
6
11
10
4
7
6
7
6
9
6
6
8
5
4
9
9
9
8
9
9
7
5
9
8
5
5
4
9
8
9
5
8
4
3
6
14
5
3
6
5
8
5
5
42
64
89
85
86
79
87
99
36
6
5
7
8
11
7
7
4
3
7
13
7
5
11
7
3
7
5
6
6
10
10
12
10
6
3
4
5
11
5
5
7
6
6
7
5
5
9
10
5
7
9
7
7
7
7
9
3
9
54
61
46
42
48
42
49
45
21
4
8
6
6
10
8
10
7
9
12
7
7
13
7
5
8
6
12
9
4
5
5
8
4
6
9
7
7
7
8
7
10
6
7
7
5
9
14
7
9
10
6
5
6
3
10
6
4
37
24
14
13
8
11
8
14
32
15
4
5
3
10
4
5
5
12
10
7
12
5
8
5
4
7
8
7
5
2
2
4
9
5
5
11
8
7
6
8
6
5
5
3
8
6
7
6
7
8
11
6
7
12
7
12
5
10
48
21
14
20
15
17
14
23
14
6
8
3
6
3
2
5
6
3
7
5
5
6
4
8
11
9
6
2
6
5
3
5
4
5
8
7
9
10
12
9
5
8
5
8
10
10
3
4
7
8
6
12
4
4
6
9
10
33
37
50
52
47
41
48
39
28
5
7
7
6
16
3
6
9
10
3
9
6
6
8
7
6
6
7
4
8
7
7
5
7
8
9
8
5
8
9
5
11
5
8
9
5
3
8
8
7
1
5
8
9
9
8
11
6
9
63
84
87
72
71
73
60
54
14
4
9
13
12
9
6
7
5
7
7
4
11
9
11
2
8
4
8
13
5
7
7
11
5
8
4
3
8
7
7
7
8
5
1
6
8
5
7
7
6
12
8
10
1
14
3
9
10
39
100
70
96
92
108
114
99
27
11
5
7
8
5
9
10
9
5
6
4
10
4
10
7
7
9
8
8
6
8
6
6
12
10
3
6
6
8
7
8
8
4
0
10
7
5
4
9
8
5
6
8
7
5
8
13
6
3
84
105
101
111
116
83
82
66
11
11
5
10
4
8
7
11
6
7
9
9
6
5
9
12
8
7
6
6
9
7
15
4
8
9
3
8
6
7
2
7
6
2
7
5
10
4
9
5
7
7
13
9
6
8
2
4
10
40
112
105
112
92
107
113
98
32
6
10
13
8
11
9
7
11
6
6
12
5
8
5
2
9
10
9
9
8
8
7
2
9
9
9
9
6
8
9
5
12
9
3
6
9
8
4
5
6
1
6
7
6
4
7
7
11
9
100
92
112
120
91
106
84
59
8
9
5
9
3
11
4
12
8
6
6
6
7
3
6
2
4
1
10
8
5
4
11
8
8
5
14
11
9
10
10
7
9
12
5
8
11
5
6
7
8
5
6
4
5
9
5
7
7
37
112
105
114
94
99
99
87
23
7
7
7
3
12
5
5
8
6
6
4
6
9
13
9
4
10
6
4
7
10
0
3
5
6
11
8
5
5
9
6
9
3
9
19
6
6
4
6
5
4
6
7
8
5
6
8
7
7
79
111
95
93
111
104
88
71
8
9
8
7
6
9
10
7
6
7
4
5
10
4
8
4
2
6
4
7
5
4
5
7
7
8
8
8
7
6
6
5
11
14
9
6
5
14
6
5
6
9
5
9
7
8
6
4
2
29
88
99
96
88
102
113
91
20
9
7
5
8
8
6
13
14
9
7
6
5
6
8
6
6
8
7
9
9
5
9
5
8
5
7
6
15
6
9
7
3
3
6
6
3
17
4
2
4
10
6
6
4
4
5
6
10
4
80
73
84
88
90
95
99
62
5
6
9
5
10
11
9
5
9
7
7
12
1
5
5
9
8
5
12
17
6
5
8
2
8
8
4
4
9
7
4
8
6
7
8
5
9
9
10
6
7
4
6
7
0
2
8
7
8
27
90
77
69
91
93
72
87
22
5
8
6
9
3
19
13
8
7
9
3
6
7
8
9
6
10
5
6
10
8
7
3
8
8
6
6
1
5
10
4
2
8
9
10
7
5
7
6
6
12
7
7
3
7
6
4
6
8
80
83
74
84
73
73
78
50
5
9
15
13
8
9
7
12
7
6
9
12
9
11
2
9
10
6
8
19
7
11
11
5
8
6
2
4
2
7
9
7
8
5
4
4
6
5
5
6
10
7
4
8
7
10
5
11
5
37
81
89
73
65
71
77
71
22
9
5
7
5
6
8
6
3
3
6
10
9
10
11
12
4
5
6
7
8
9
9
5
6
7
12
12
9
11
10
11
7
9
8
8
4
6
6
5
4
5
9
3
5
9
9
6
13
4
70
60
71
79
69
66
73
48
7
11
7
9
7
7
6
5
11
6
9
10
11
5
5
8
8
8
11
9
4
6
6
5
7
7
8
2
6
3
8
10
5
9
6
4
8
3
4
10
8
9
9
7
6
8
5
1
7
32
67
77
56
63
68
62
54
15
10
9
7
9
6
8
7
8
8
3
11
6
7
5
9
10
8
14
5
3
7
7
7
6
9
6
7
5
9
9
5
6
8
4
7
7
4
6
12
5
3
9
6
5
7
4
8
12
10
47
70
62
63
63
60
53
32
7
6
16
8
7
6
5
8
10
11
1
3
4
11
3
10
4
8
9
8
10
5
8
8
10
9
3
12
7
7
3
7
4
9
6
11
7
6
4
11
15
5
5
10
8
4
7
6
9
18
57
60
51
60
55
57
67
13
4
13
2
13
8
7
4
11
8
1
9
10
4
6
6
8
9
7
10
9
13
4
8
7
6
6
7
8
8
6
5
7
9
8
9
11
4
7
9
11
6
10
10
4
9
3
2
9
7
58
67
51
49
53
48
63
38
5
13
5
11
5
5
11
3
8
4
11
5
6
4
7
10
10
7
13
8
7
10
5
5
9
6
7
6
8
8
6
8
11
7
5
12
9
4
9
12
3
5
6
13
7
10
6
5
6
18
45
62
42
53
44
44
50
12
10
8
7
7
5
6
6
12
5
8
9
8
8
3
8
2
2
10
7
10
12
8
10
5
6
5
5
4
5
3
7
7
7
9
10
9
5
4
11
8
6
8
12
7
6
4
10
5
10
49
62
63
51
41
62
51
15
7
10
3
7
4
6
3
6
8
10
7
4
7
8
3
10
11
2
7
9
11
8
8
11
9
5
3
6
12
2
9
6
7
3
6
6
5
7
8
6
4
8
4
5
8
7
3
5
6
18
51
40
42
56
55
52
42
12
8
9
8
7
6
8
4
4
9
8
13
5
7
14
7
10
7
6
6
5
9
10
5
4
16
9
9
9
15
4
6
4
11
3
5
3
5
6
7
3
10
3
3
6
5
7
8
4
4
8
6
7
3
9
9
5
7
12
7
4
8
5
8
8
4
6
10
9
7
7
12
3
4
8
