time(ps)	counts
0	1394
5000	1483
10000	1383
15000	1401
20000	1377
25000	1390
30000	1456
35000	1397
40000	1366
45000	1363
50000	1362
55000	1441
60000	1313
65000	1384
70000	1421
75000	1427
80000	1336
85000	1507
90000	1557
95000	1543
100000	1591
105000	1489
110000	1504
115000	1520
120000	1526
125000	1475
130000	1559
135000	1500
140000	1490
145000	1486
150000	1442
155000	1513
160000	1519
165000	1517
170000	1464
175000	1327
180000	1466
185000	1405
190000	1346
195000	1379
200000	1407
205000	1526
210000	1484
215000	1543
220000	1563
225000	1455
230000	1450
235000	1487
240000	1467
245000	1421
250000	1463
255000	1407
260000	1466
265000	1502
270000	1363
275000	1361
280000	1409
285000	1510
290000	1602
295000	1651
300000	1489
305000	1547
310000	1546
315000	1489
320000	1479
325000	1495
330000	1413
335000	1404
340000	1489
345000	1432
350000	1422
355000	1416
360000	1440
365000	1428
370000	1391
375000	1434
380000	1406
385000	1471
390000	1586
395000	1589
400000	1602
405000	1561
410000	1545
415000	1516
420000	1475
425000	1532
430000	1452
435000	1454
440000	1386
445000	1467
450000	1489
455000	1497
460000	1409
465000	1448
470000	1384
475000	1455
480000	1350
485000	1440
490000	1335
495000	1398
500000	1384
505000	1453
510000	1575
515000	1644
520000	1536
525000	1556
530000	1585
535000	1469
540000	1520
545000	1432
550000	1496
555000	1502
560000	1425
565000	1427
570000	1471
575000	1440
580000	1457
585000	1397
590000	1446
595000	1476
600000	1425
605000	1409
610000	1382
615000	1313
620000	1355
625000	1397
630000	1389
635000	1388
640000	1412
645000	1408
650000	1554
655000	1472
660000	1488
665000	1548
670000	1550
675000	1522
680000	1453
685000	1471
690000	1418
695000	1429
700000	1411
705000	1464
710000	1429
715000	1434
720000	1440
725000	1425
730000	1440
735000	1406
740000	1397
745000	1410
750000	1490
755000	1398
760000	1396
765000	1370
770000	1439
775000	1407
780000	1379
785000	1370
790000	1348
795000	1420
800000	1424
805000	1409
810000	1458
815000	1472
820000	1480
825000	1497
830000	1517
835000	1432
840000	1401
845000	1432
850000	1428
855000	1393
860000	1456
865000	1330
870000	1445
875000	1378
880000	1406
885000	1406
890000	1383
895000	1388
900000	1364
905000	1392
910000	1359
915000	1386
920000	1441
925000	1370
930000	1450
935000	1404
940000	1403
945000	1458
950000	1342
955000	1421
960000	1404
965000	1371
970000	1383
975000	1346
980000	1377
985000	1371
990000	1435
995000	1423
1000000	1475
1005000	1475
1010000	1408
1015000	1349
1020000	1459
1025000	1445
1030000	1430
1035000	1394
1040000	1372
1045000	1313
1050000	1365
1055000	1447
1060000	1383
1065000	1328
1070000	1331
1075000	1376
1080000	1385
1085000	1311
1090000	1417
1095000	1388
1100000	1374
1105000	1326
1110000	1409
1115000	1441
1120000	1385
1125000	1417
1130000	1373
1135000	1397
1140000	1359
1145000	1394
1150000	1376
1155000	1385
1160000	1291
1165000	1418
1170000	1330
1175000	1382
1180000	1392
1185000	1361
1190000	1415
1195000	1375
1200000	1394
1205000	1329
1210000	1349
1215000	1405
1220000	1392
1225000	1350
1230000	1343
1235000	1309
1240000	1400
1245000	1367
1250000	1393
1255000	1408
1260000	1410
1265000	1381
1270000	1302
1275000	1481
1280000	1425
1285000	1363
1290000	1319
1295000	1394
1300000	1399
1305000	1438
1310000	1389
1315000	1423
1320000	1358
1325000	1374
1330000	1416
1335000	1365
1340000	1389
1345000	1398
1350000	1414
1355000	1354
1360000	1297
1365000	1385
1370000	1417
1375000	1387
1380000	1373
1385000	1396
1390000	1389
1395000	1376
1400000	1373
1405000	1375
1410000	1354
1415000	1357
1420000	1361
1425000	1307
1430000	1383
1435000	1364
1440000	1350
1445000	1356
1450000	1387
1455000	1431
1460000	1382
1465000	1432
1470000	1417
1475000	1447
1480000	1332
1485000	1324
1490000	1396
1495000	1391
1500000	1446
1505000	1394
1510000	1348
1515000	1398
1520000	1360
1525000	1365
1530000	1321
1535000	1391
1540000	1384
1545000	1369
1550000	1336
1555000	1370
1560000	1327
1565000	1396
1570000	1407
1575000	1344
1580000	1322
1585000	1420
1590000	1344
1595000	1351
1600000	1335
1605000	1360
1610000	1344
1615000	1383
1620000	1436
1625000	1369
1630000	1319
1635000	1332
1640000	1399
1645000	1501
1650000	1395
1655000	1421
1660000	1404
1665000	1378
1670000	1410
1675000	1396
1680000	1371
1685000	1416
1690000	1378
1695000	1378
1700000	1385
1705000	1387
1710000	1368
1715000	1426
1720000	1454
1725000	1311
1730000	1468
1735000	1390
1740000	1312
1745000	1341
1750000	1411
1755000	1338
1760000	1365
1765000	1332
1770000	1351
1775000	1401
1780000	1378
1785000	1356
1790000	1391
1795000	1349
1800000	1420
1805000	1327
1810000	1419
1815000	1294
1820000	1326
1825000	1410
1830000	1373
1835000	1400
1840000	1366
1845000	1304
1850000	1399
1855000	1397
1860000	1398
1865000	1412
1870000	1424
1875000	1378
1880000	1391
1885000	1373
1890000	1334
1895000	1450
1900000	1292
1905000	1494
1910000	1495
1915000	1535
1920000	1476
1925000	1377
1930000	1459
1935000	1437
1940000	1379
1945000	1408
1950000	1397
1955000	1415
1960000	1338
1965000	1435
1970000	1305
1975000	1399
1980000	1423
1985000	1369
1990000	1364
1995000	1446
2000000	1436
2005000	1391
2010000	1394
2015000	1403
2020000	1386
2025000	1354
2030000	1371
2035000	1458
2040000	1389
2045000	1390
2050000	1371
2055000	1377
2060000	1391
2065000	1340
2070000	1433
2075000	1311
2080000	1392
2085000	1455
2090000	1433
2095000	1359
2100000	1321
2105000	1383
2110000	1395
2115000	1422
2120000	1396
2125000	1352
2130000	1414
2135000	1416
2140000	1434
2145000	1321
2150000	1391
2155000	1356
2160000	1393
2165000	1375
2170000	1397
2175000	1409
2180000	1387
2185000	1476
2190000	1514
2195000	1520
2200000	1511
2205000	1571
2210000	1470
2215000	1452
2220000	1502
2225000	1406
2230000	1409
2235000	1400
2240000	1390
2245000	1409
2250000	1426
2255000	1455
2260000	1405
2265000	1392
2270000	1390
2275000	1432
2280000	1363
2285000	1437
2290000	1347
2295000	1354
2300000	1354
2305000	1440
2310000	1372
2315000	1327
2320000	1379
2325000	1423
2330000	1412
2335000	1371
2340000	1405
2345000	1446
2350000	1402
2355000	1364
2360000	1408
2365000	1392
2370000	1398
2375000	1325
2380000	1474
2385000	1433
2390000	1429
2395000	1400
2400000	1414
2405000	1401
2410000	1419
2415000	1286
2420000	1368
2425000	1407
2430000	1421
2435000	1367
2440000	1310
2445000	1410
2450000	1359
2455000	1367
2460000	1348
2465000	1345
2470000	1351
2475000	1356
2480000	1447
2485000	1478
2490000	1576
2495000	1560
2500000	1543
2505000	1554
2510000	1506
2515000	1494
2520000	1512
2525000	1501
2530000	1522
2535000	1447
2540000	1380
2545000	1426
2550000	1467
2555000	1452
2560000	1359
2565000	1388
2570000	1408
2575000	1419
2580000	1395
2585000	1399
2590000	1447
2595000	1327
2600000	1403
2605000	1445
2610000	1393
2615000	1436
2620000	1391
2625000	1321
2630000	1404
2635000	1383
2640000	1386
2645000	1385
2650000	1326
2655000	1331
2660000	1421
2665000	1383
2670000	1377
2675000	1294
2680000	1384
2685000	1357
2690000	1321
2695000	1322
2700000	1438
2705000	1320
2710000	1413
2715000	1368
2720000	1328
2725000	1379
2730000	1451
2735000	1312
2740000	1394
2745000	1371
2750000	1374
2755000	1402
2760000	1322
2765000	1380
2770000	1330
2775000	1388
2780000	1411
2785000	1386
2790000	1335
2795000	1449
2800000	1394
2805000	1463
2810000	1687
2815000	1617
2820000	1561
2825000	1600
2830000	1508
2835000	1488
2840000	1540
2845000	1532
2850000	1484
2855000	1429
2860000	1466
2865000	1537
2870000	1472
2875000	1472
2880000	1396
2885000	1441
2890000	1457
2895000	1437
2900000	1434
2905000	1346
2910000	1334
2915000	1434
2920000	1355
2925000	1387
2930000	1430
2935000	1417
2940000	1406
2945000	1318
2950000	1391
2955000	1380
2960000	1354
2965000	1401
2970000	1356
2975000	1447
2980000	1365
2985000	1415
2990000	1301
2995000	1384
3000000	1420
3005000	1359
3010000	1391
3015000	1416
3020000	1361
3025000	1414
3030000	1326
3035000	1325
3040000	1348
3045000	1319
3050000	1372
3055000	1342
3060000	1357
3065000	1360
3070000	1396
3075000	1345
3080000	1291
3085000	1351
3090000	1352
3095000	1358
3100000	1355
3105000	1316
3110000	1375
3115000	1325
3120000	1419
3125000	1372
3130000	1381
3135000	1335
3140000	1345
3145000	1413
3150000	1599
3155000	1469
3160000	1482
3165000	1474
3170000	1498
3175000	1453
3180000	1478
3185000	1488
3190000	1487
3195000	1399
3200000	1488
3205000	1473
3210000	1398
3215000	1378
3220000	1394
3225000	1423
3230000	1446
3235000	1421
3240000	1459
3245000	1318
3250000	1378
3255000	1439
3260000	1403
3265000	1395
3270000	1433
3275000	1396
3280000	1393
3285000	1437
3290000	1406
3295000	1356
3300000	1381
3305000	1358
3310000	1377
3315000	1384
3320000	1387
3325000	1437
3330000	1367
3335000	1395
3340000	1323
3345000	1374
3350000	1392
3355000	1390
3360000	1386
3365000	1401
3370000	1423
3375000	1379
3380000	1438
3385000	1407
3390000	1379
3395000	1426
3400000	1382
3405000	1363
3410000	1284
3415000	1432
3420000	1379
3425000	1316
3430000	1441
3435000	1368
3440000	1373
3445000	1343
3450000	1466
3455000	1399
3460000	1435
3465000	1395
3470000	1312
3475000	1322
3480000	1374
3485000	1409
3490000	1317
3495000	1362
3500000	1363
3505000	1415
3510000	1514
3515000	1491
3520000	1502
3525000	1427
3530000	1487
3535000	1384
3540000	1485
3545000	1355
3550000	1403
3555000	1422
3560000	1443
3565000	1376
3570000	1397
3575000	1406
3580000	1434
3585000	1436
3590000	1425
3595000	1441
3600000	1386
3605000	1381
3610000	1396
3615000	1408
3620000	1370
3625000	1341
3630000	1334
3635000	1362
3640000	1372
3645000	1362
3650000	1371
3655000	1401
3660000	1342
3665000	1446
3670000	1420
3675000	1444
3680000	1388
3685000	1340
3690000	1318
3695000	1381
3700000	1359
3705000	1418
3710000	1422
3715000	1353
3720000	1365
3725000	1325
3730000	1300
3735000	1357
3740000	1360
3745000	1407
3750000	1331
3755000	1341
3760000	1432
3765000	1345
3770000	1390
3775000	1364
3780000	1362
3785000	1271
3790000	1414
3795000	1332
3800000	1338
3805000	1346
3810000	1344
3815000	1414
3820000	1416
3825000	1373
3830000	1335
3835000	1390
3840000	1365
3845000	1362
3850000	1326
3855000	1362
3860000	1377
3865000	1345
3870000	1301
3875000	1390
3880000	1327
3885000	1328
3890000	1443
3895000	1458
3900000	1394
3905000	1391
3910000	1392
3915000	1325
3920000	1365
3925000	1383
3930000	1402
3935000	1330
3940000	1372
3945000	1403
3950000	1373
3955000	1430
3960000	1402
3965000	1402
3970000	1447
3975000	1388
3980000	1456
3985000	1345
3990000	1307
3995000	1421
4000000	1395
4005000	1331
4010000	1392
4015000	1378
4020000	1344
4025000	1394
4030000	1364
4035000	1396
4040000	1374
4045000	1441
4050000	1417
4055000	1336
4060000	1369
4065000	1440
4070000	1388
4075000	1360
4080000	1390
4085000	1329
4090000	1388
4095000	1387
4100000	1380
4105000	1388
4110000	1315
4115000	1345
4120000	1320
4125000	1391
4130000	1383
4135000	1352
4140000	1342
4145000	1451
4150000	1422
4155000	1334
4160000	1391
4165000	1407
4170000	1423
4175000	1441
4180000	1359
4185000	1372
4190000	1433
4195000	1423
4200000	1322
4205000	1420
4210000	1393
4215000	1333
4220000	1383
4225000	1341
4230000	1335
4235000	1356
4240000	1349
4245000	1381
4250000	1399
4255000	1329
4260000	1328
4265000	1351
4270000	1374
4275000	1363
4280000	1363
4285000	1361
4290000	1402
4295000	1386
4300000	1422
4305000	1414
4310000	1383
4315000	1302
4320000	1392
4325000	1359
4330000	1441
4335000	1376
4340000	1311
4345000	1446
4350000	1451
4355000	1374
4360000	1393
4365000	1345
4370000	1424
4375000	1352
4380000	1386
4385000	1372
4390000	1341
4395000	1368
4400000	1353
4405000	1431
4410000	1421
4415000	1285
4420000	1367
4425000	1295
4430000	1418
4435000	1323
4440000	1380
4445000	1323
4450000	1371
4455000	1316
4460000	1325
4465000	1421
4470000	1384
4475000	1378
4480000	1407
4485000	1390
4490000	1366
4495000	1369
4500000	1357
4505000	1389
4510000	1294
4515000	1366
4520000	1385
4525000	1401
4530000	1351
4535000	1260
4540000	1323
4545000	1363
4550000	1411
4555000	1326
4560000	1350
4565000	1339
4570000	1394
4575000	1350
4580000	1340
4585000	1307
4590000	1404
4595000	1353
4600000	1358
4605000	1376
4610000	1337
4615000	1429
4620000	1356
4625000	1396
4630000	1361
4635000	1354
4640000	1362
4645000	1382
4650000	1341
4655000	1343
4660000	1356
4665000	1336
4670000	1405
4675000	1426
4680000	1304
4685000	1406
4690000	1408
4695000	1401
4700000	1433
4705000	1336
4710000	1365
4715000	1406
4720000	1370
4725000	1390
4730000	1345
4735000	1485
4740000	1350
4745000	1356
4750000	1412
4755000	1444
4760000	1392
4765000	1297
4770000	1342
4775000	1426
4780000	1341
4785000	1346
4790000	1419
4795000	1369
4800000	1314
4805000	1329
4810000	1424
4815000	1356
4820000	1363
4825000	1343
4830000	1282
4835000	1476
4840000	1357
4845000	1361
4850000	1349
4855000	1426
4860000	1389
4865000	1359
4870000	1327
4875000	1397
4880000	1379
4885000	1388
4890000	1406
4895000	1365
4900000	1323
4905000	1336
4910000	1367
4915000	1387
4920000	1345
4925000	1352
4930000	1370
4935000	1368
4940000	1362
4945000	1371
4950000	1371
4955000	1336
4960000	1401
4965000	1331
4970000	1334
4975000	1397
4980000	1361
4985000	1345
4990000	1390
4995000	1309
5000000	1378
5005000	1393
5010000	1332
5015000	1382
5020000	1321
5025000	1421
5030000	1399
5035000	1395
5040000	1365
5045000	1381
5050000	1340
5055000	1340
5060000	1373
5065000	1412
5070000	1332
5075000	1387
5080000	1407
5085000	1385
5090000	1413
5095000	1314
5100000	1380
5105000	1409
5110000	1356
5115000	1338
5120000	1402
5125000	1379
5130000	1400
5135000	1371
5140000	1432
5145000	1399
5150000	1441
5155000	1384
5160000	1410
5165000	1347
5170000	1458
5175000	1414
5180000	1358
5185000	1432
5190000	1366
5195000	1365
5200000	1381
5205000	1346
5210000	1318
5215000	1397
5220000	1369
5225000	1379
5230000	1338
5235000	1379
5240000	1419
5245000	1371
5250000	1346
5255000	1370
5260000	1385
5265000	1323
5270000	1319
5275000	1362
5280000	1399
5285000	1336
5290000	1316
5295000	1387
5300000	1333
5305000	1348
5310000	1337
5315000	1315
5320000	1395
5325000	1402
5330000	1363
5335000	1374
5340000	1381
5345000	1364
5350000	1396
5355000	1342
5360000	1364
5365000	1349
5370000	1358
5375000	1376
5380000	1340
5385000	1387
5390000	1455
5395000	1294
5400000	1350
5405000	1346
5410000	1377
5415000	1361
5420000	1429
5425000	1382
5430000	1358
5435000	1308
5440000	1370
5445000	1386
5450000	1385
5455000	1381
5460000	1399
5465000	1379
5470000	1332
5475000	1363
5480000	1387
5485000	1431
5490000	1340
5495000	1403
5500000	1353
5505000	1429
5510000	1381
5515000	1300
5520000	1309
5525000	1283
5530000	1438
5535000	1422
5540000	1324
5545000	1336
5550000	1373
5555000	1340
5560000	1345
5565000	1397
5570000	1436
5575000	1387
5580000	1367
5585000	1362
5590000	1354
5595000	1371
5600000	1390
5605000	1462
5610000	1486
5615000	1476
5620000	1537
5625000	1509
5630000	1401
5635000	1378
5640000	1364
5645000	1417
5650000	1336
5655000	1379
5660000	1530
5665000	1430
5670000	1395
5675000	1408
5680000	1388
5685000	1334
5690000	1353
5695000	1431
5700000	1365
5705000	1367
5710000	1373
5715000	1343
5720000	1385
5725000	1384
5730000	1339
5735000	1424
5740000	1348
5745000	1371
5750000	1401
5755000	1328
5760000	1342
5765000	1363
5770000	1363
5775000	1332
5780000	1350
5785000	1399
5790000	1381
5795000	1350
5800000	1379
5805000	1453
5810000	1430
5815000	1389
5820000	1360
5825000	1281
5830000	1412
5835000	1397
5840000	1343
5845000	1297
5850000	1375
5855000	1338
5860000	1385
5865000	1380
5870000	1411
5875000	1378
5880000	1398
5885000	1384
5890000	1330
5895000	1435
5900000	1386
5905000	1359
5910000	1411
5915000	1393
5920000	1371
5925000	1299
5930000	1370
5935000	1426
5940000	1364
5945000	1437
5950000	1453
5955000	1322
5960000	1361
5965000	1376
5970000	1349
5975000	1380
5980000	1450
5985000	1372
5990000	1386
5995000	1325
6000000	1337
6005000	1420
6010000	1322
6015000	1402
6020000	1390
6025000	1337
6030000	1356
6035000	1380
6040000	1329
6045000	1360
6050000	1351
6055000	1290
6060000	1366
6065000	1348
6070000	1392
6075000	1358
6080000	1374
6085000	1505
6090000	1487
6095000	1528
6100000	1527
6105000	1451
6110000	1474
6115000	1420
6120000	1511
6125000	1478
6130000	1500
6135000	1421
6140000	1424
6145000	1398
6150000	1415
6155000	1360
6160000	1428
6165000	1396
6170000	1363
6175000	1424
6180000	1398
6185000	1412
6190000	1400
6195000	1415
6200000	1272
6205000	1422
6210000	1466
6215000	1377
6220000	1353
6225000	1398
6230000	1412
6235000	1374
6240000	1373
6245000	1390
6250000	1342
6255000	1428
6260000	1399
6265000	1314
6270000	1423
6275000	1365
6280000	1384
6285000	1440
6290000	1369
6295000	1401
6300000	1366
6305000	1422
6310000	1368
6315000	1328
6320000	1339
6325000	1447
6330000	1395
6335000	1332
6340000	1350
6345000	1366
6350000	1321
6355000	1329
6360000	1410
6365000	1383
6370000	1367
6375000	1367
6380000	1365
6385000	1330
6390000	1364
6395000	1307
6400000	1361
6405000	1400
6410000	1358
6415000	1406
6420000	1314
6425000	1369
6430000	1350
6435000	1394
6440000	1430
6445000	1422
6450000	1362
6455000	1380
6460000	1372
6465000	1343
6470000	1318
6475000	1316
6480000	1293
6485000	1403
6490000	1404
6495000	1368
6500000	1431
6505000	1365
6510000	1346
6515000	1376
6520000	1309
6525000	1413
6530000	1376
6535000	1388
6540000	1334
6545000	1369
6550000	1329
6555000	1393
6560000	1398
6565000	1314
6570000	1367
6575000	1324
6580000	1387
6585000	1482
6590000	1576
6595000	1583
6600000	1562
6605000	1502
6610000	1514
6615000	1472
6620000	1485
6625000	1414
6630000	1469
6635000	1437
6640000	1446
6645000	1401
6650000	1410
6655000	1446
6660000	1414
6665000	1387
6670000	1401
6675000	1432
6680000	1405
6685000	1330
6690000	1367
6695000	1414
6700000	1285
6705000	1399
6710000	1330
6715000	1393
6720000	1343
6725000	1416
6730000	1404
6735000	1379
6740000	1390
6745000	1434
6750000	1257
6755000	1413
6760000	1402
6765000	1321
6770000	1362
6775000	1337
6780000	1399
6785000	1316
6790000	1354
6795000	1392
6800000	1360
6805000	1375
6810000	1319
6815000	1433
6820000	1367
6825000	1354
6830000	1356
6835000	1358
6840000	1420
6845000	1374
6850000	1326
6855000	1340
6860000	1393
6865000	1347
6870000	1389
6875000	1364
6880000	1401
6885000	1344
6890000	1393
6895000	1389
6900000	1348
6905000	1296
6910000	1388
6915000	1408
6920000	1386
6925000	1367
6930000	1349
6935000	1370
6940000	1377
6945000	1377
6950000	1397
6955000	1279
6960000	1344
6965000	1340
6970000	1342
6975000	1378
6980000	1399
6985000	1438
6990000	1369
6995000	1382
7000000	1408
7005000	1373
7010000	1378
7015000	1344
7020000	1432
7025000	1421
7030000	1360
7035000	1341
7040000	1352
7045000	1403
7050000	1385
7055000	1407
7060000	1387
7065000	1405
7070000	1422
7075000	1355
7080000	1399
7085000	1408
7090000	1404
7095000	1378
7100000	1339
7105000	1439
7110000	1579
7115000	1626
7120000	1506
7125000	1594
7130000	1529
7135000	1477
7140000	1527
7145000	1450
7150000	1478
7155000	1466
7160000	1441
7165000	1485
7170000	1449
7175000	1466
7180000	1474
7185000	1428
7190000	1364
7195000	1423
7200000	1459
7205000	1467
7210000	1403
7215000	1430
7220000	1343
7225000	1449
7230000	1422
7235000	1356
7240000	1441
7245000	1340
7250000	1367
7255000	1363
7260000	1450
7265000	1407
7270000	1364
7275000	1413
7280000	1372
7285000	1457
7290000	1364
7295000	1344
7300000	1382
7305000	1428
7310000	1341
7315000	1427
7320000	1408
7325000	1345
7330000	1432
7335000	1377
7340000	1346
7345000	1401
7350000	1398
7355000	1422
7360000	1339
7365000	1415
7370000	1314
7375000	1409
7380000	1340
7385000	1363
7390000	1367
7395000	1402
7400000	1347
7405000	1389
7410000	1351
7415000	1381
7420000	1379
7425000	1345
7430000	1409
7435000	1383
7440000	1394
7445000	1421
7450000	1396
7455000	1381
7460000	1369
7465000	1391
7470000	1292
7475000	1343
7480000	1409
7485000	1337
7490000	1393
7495000	1481
7500000	1424
7505000	1452
7510000	1360
7515000	1396
7520000	1346
7525000	1310
7530000	1422
7535000	1379
7540000	1402
7545000	1430
7550000	1353
7555000	1406
7560000	1369
7565000	1375
7570000	1355
7575000	1367
7580000	1387
7585000	1460
7590000	1345
7595000	1422
7600000	1384
7605000	1320
7610000	1334
7615000	1316
7620000	1340
7625000	1422
7630000	1355
7635000	1329
7640000	1344
7645000	1432
7650000	1519
7655000	1540
7660000	1568
7665000	1565
7670000	1523
7675000	1521
7680000	1512
7685000	1499
7690000	1494
7695000	1375
7700000	1485
7705000	1443
7710000	1418
7715000	1375
7720000	1447
7725000	1446
7730000	1381
7735000	1391
7740000	1380
7745000	1357
7750000	1417
7755000	1378
7760000	1433
7765000	1417
7770000	1360
7775000	1429
7780000	1467
7785000	1382
7790000	1427
7795000	1357
7800000	1332
7805000	1386
7810000	1369
7815000	1409
7820000	1385
7825000	1378
7830000	1402
7835000	1431
7840000	1325
7845000	1368
7850000	1318
7855000	1376
7860000	1404
7865000	1385
7870000	1321
7875000	1294
7880000	1398
7885000	1293
7890000	1369
7895000	1357
7900000	1313
7905000	1429
7910000	1321
7915000	1355
7920000	1341
7925000	1332
7930000	1337
7935000	1375
7940000	1320
7945000	1388
7950000	1309
7955000	1413
7960000	1376
7965000	1344
7970000	1365
7975000	1356
7980000	1377
7985000	1378
7990000	1432
7995000	1322
8000000	1386
8005000	1362
8010000	1330
8015000	1303
8020000	1396
8025000	1409
8030000	1343
8035000	1341
8040000	1352
8045000	1392
8050000	1382
8055000	1382
8060000	1316
8065000	1328
8070000	1384
8075000	1367
8080000	1408
8085000	1344
8090000	1364
8095000	1389
8100000	1412
8105000	1470
8110000	1384
8115000	1353
8120000	1395
8125000	1350
8130000	1385
8135000	1364
8140000	1318
8145000	1346
8150000	1369
8155000	1339
8160000	1350
8165000	1376
8170000	1327
8175000	1378
8180000	1338
8185000	1308
8190000	1428
8195000	1370
8200000	1327
8205000	1491
8210000	1525
8215000	1489
8220000	1482
8225000	1468
8230000	1538
8235000	1439
8240000	1472
8245000	1441
8250000	1448
8255000	1444
8260000	1418
8265000	1383
8270000	1447
8275000	1356
8280000	1401
8285000	1413
8290000	1351
8295000	1367
8300000	1395
8305000	1370
8310000	1433
8315000	1419
8320000	1352
8325000	1410
8330000	1357
8335000	1363
8340000	1367
8345000	1332
8350000	1337
8355000	1371
8360000	1388
8365000	1362
8370000	1358
8375000	1409
8380000	1390
8385000	1389
8390000	1354
8395000	1336
8400000	1420
8405000	1405
8410000	1285
8415000	1379
8420000	1442
8425000	1374
8430000	1469
8435000	1359
8440000	1376
8445000	1353
8450000	1387
8455000	1442
8460000	1429
8465000	1359
8470000	1357
8475000	1362
8480000	1391
8485000	1464
8490000	1402
8495000	1367
8500000	1414
8505000	1342
8510000	1335
8515000	1391
8520000	1426
8525000	1325
8530000	1275
8535000	1346
8540000	1348
8545000	1388
8550000	1340
8555000	1316
8560000	1359
8565000	1372
8570000	1412
8575000	1389
8580000	1440
8585000	1405
8590000	1332
8595000	1362
8600000	1387
8605000	1366
8610000	1321
8615000	1352
8620000	1372
8625000	1344
8630000	1352
8635000	1386
8640000	1447
8645000	1320
8650000	1362
8655000	1397
8660000	1376
8665000	1429
8670000	1403
8675000	1366
8680000	1425
8685000	1449
8690000	1369
8695000	1356
8700000	1360
8705000	1404
8710000	1348
8715000	1320
8720000	1370
8725000	1414
8730000	1385
8735000	1301
8740000	1388
8745000	1349
8750000	1364
8755000	1435
8760000	1381
8765000	1374
8770000	1399
8775000	1356
8780000	1365
8785000	1452
8790000	1443
8795000	1503
8800000	1476
8805000	1430
8810000	1411
8815000	1453
8820000	1493
8825000	1358
8830000	1425
8835000	1461
8840000	1445
8845000	1441
8850000	1419
8855000	1418
8860000	1398
8865000	1342
8870000	1407
8875000	1352
8880000	1415
8885000	1388
8890000	1294
8895000	1395
8900000	1302
8905000	1361
8910000	1344
8915000	1379
8920000	1423
8925000	1287
8930000	1396
8935000	1389
8940000	1387
8945000	1354
8950000	1324
8955000	1352
8960000	1373
8965000	1408
8970000	1415
8975000	1359
8980000	1379
8985000	1411
8990000	1338
8995000	1341
9000000	1296
9005000	1369
9010000	1326
9015000	1382
9020000	1356
9025000	1440
9030000	1376
9035000	1376
9040000	1406
9045000	1371
9050000	1349
9055000	1330
9060000	1371
9065000	1382
9070000	1415
9075000	1327
9080000	1352
9085000	1340
9090000	1399
9095000	1342
9100000	1377
9105000	1376
9110000	1426
9115000	1381
9120000	1341
9125000	1355
9130000	1409
9135000	1386
9140000	1370
9145000	1356
9150000	1384
9155000	1391
9160000	1388
9165000	1345
9170000	1387
9175000	1371
9180000	1279
9185000	1365
9190000	1350
9195000	1394
9200000	1372
9205000	1351
9210000	1356
9215000	1368
9220000	1349
9225000	1330
9230000	1407
9235000	1318
9240000	1335
9245000	1400
9250000	1360
9255000	1327
9260000	1385
9265000	1362
9270000	1407
9275000	1374
9280000	1416
9285000	1314
9290000	1396
9295000	1428
9300000	1411
9305000	1444
9310000	1356
9315000	1307
9320000	1408
9325000	1382
9330000	1411
9335000	1430
9340000	1374
9345000	1354
9350000	1401
9355000	1363
9360000	1328
9365000	1395
9370000	1336
9375000	1378
9380000	1374
9385000	1374
9390000	1402
9395000	1449
9400000	1432
9405000	1353
9410000	1408
9415000	1369
9420000	1421
9425000	1413
9430000	1406
9435000	1444
9440000	1482
9445000	1415
9450000	1374
9455000	1389
9460000	1365
9465000	1401
9470000	1378
9475000	1397
9480000	1388
9485000	1316
9490000	1315
9495000	1392
9500000	1369
9505000	1376
9510000	1329
9515000	1346
9520000	1418
9525000	1371
9530000	1365
9535000	1376
9540000	1368
9545000	1370
9550000	1403
9555000	1414
9560000	1407
9565000	1426
9570000	1369
9575000	1372
9580000	1403
9585000	1413
9590000	1320
9595000	1361
9600000	1380
9605000	1373
9610000	1377
9615000	1391
9620000	1338
9625000	1347
9630000	1369
9635000	1366
9640000	1404
9645000	1404
9650000	1370
9655000	1323
9660000	1349
9665000	1365
9670000	1371
9675000	1332
9680000	1351
9685000	1357
9690000	1361
9695000	1383
9700000	1385
9705000	1368
9710000	1299
9715000	1391
9720000	1360
9725000	1468
9730000	1405
9735000	1400
9740000	1313
9745000	1391
9750000	1375
9755000	1389
9760000	1365
9765000	1407
9770000	1347
9775000	1346
9780000	1363
9785000	1396
9790000	1337
9795000	1368
9800000	1294
9805000	1378
9810000	1322
9815000	1389
9820000	1382
9825000	1371
9830000	1380
9835000	1349
9840000	1271
9845000	1361
9850000	1391
9855000	1285
9860000	1346
9865000	1404
9870000	1379
9875000	1322
9880000	1324
9885000	1366
9890000	1365
9895000	1382
9900000	1338
9905000	1397
9910000	1412
9915000	1336
9920000	1341
9925000	1384
9930000	1380
9935000	1332
9940000	1414
9945000	1394
9950000	1348
9955000	1351
9960000	1452
9965000	1306
9970000	1383
9975000	1429
9980000	1378
9985000	1448
9990000	1338
9995000	1454
10000000	1394
10005000	1331
10010000	1368
10015000	1335
10020000	1386
10025000	1293
10030000	1388
10035000	1454
10040000	1371
10045000	1380
10050000	1337
10055000	1372
10060000	1357
10065000	1392
10070000	1374
10075000	1425
10080000	1388
10085000	1386
10090000	1332
10095000	1462
10100000	1361
10105000	1359
10110000	1363
10115000	1386
10120000	1388
10125000	1388
10130000	1393
10135000	1347
10140000	1352
10145000	1405
10150000	1320
10155000	1352
10160000	1342
10165000	1369
10170000	1375
10175000	1317
10180000	1333
10185000	1357
10190000	1383
10195000	1353
10200000	1396
10205000	1337
10210000	1361
10215000	1312
10220000	1386
10225000	1474
10230000	1385
10235000	1371
10240000	1441
10245000	1352
10250000	1355
10255000	1384
10260000	1373
10265000	1369
10270000	1369
10275000	1376
10280000	1355
10285000	1368
10290000	1323
10295000	1386
10300000	1406
10305000	1381
10310000	1392
10315000	1352
10320000	1408
10325000	1338
10330000	1425
10335000	1419
10340000	1377
10345000	1314
10350000	1387
10355000	1401
10360000	1400
10365000	1438
10370000	1325
10375000	1359
10380000	1355
10385000	1378
10390000	1336
10395000	1345
10400000	1390
10405000	1416
10410000	1404
10415000	1337
10420000	1314
10425000	1383
10430000	1353
10435000	1369
10440000	1404
10445000	1346
10450000	1331
10455000	1414
10460000	1309
10465000	1375
10470000	1354
10475000	1449
10480000	1351
10485000	1407
10490000	1370
10495000	1393
10500000	1407
10505000	1392
10510000	1356
10515000	1400
10520000	1337
10525000	1368
10530000	1310
10535000	1389
10540000	1404
10545000	1324
10550000	1311
10555000	1359
10560000	1293
10565000	1445
10570000	1431
10575000	1371
10580000	1398
10585000	1367
10590000	1387
10595000	1379
10600000	1421
10605000	1378
10610000	1340
10615000	1353
10620000	1336
10625000	1336
10630000	1372
10635000	1377
10640000	1385
10645000	1390
10650000	1444
10655000	1361
10660000	1359
10665000	1348
10670000	1323
10675000	1380
10680000	1294
10685000	1398
10690000	1435
10695000	1412
10700000	1376
10705000	1394
10710000	1404
10715000	1383
10720000	1399
10725000	1390
10730000	1340
10735000	1368
10740000	1331
10745000	1377
10750000	1370
10755000	1382
10760000	1403
10765000	1322
10770000	1369
10775000	1413
10780000	1325
10785000	1410
10790000	1377
10795000	1371
10800000	1335
10805000	1383
10810000	1399
10815000	1374
10820000	1329
10825000	1437
10830000	1361
10835000	1383
10840000	1394
10845000	1376
10850000	1354
10855000	1434
10860000	1432
10865000	1384
10870000	1458
10875000	1397
10880000	1345
10885000	1326
10890000	1371
10895000	1371
10900000	1419
10905000	1352
10910000	1448
10915000	1379
10920000	1384
10925000	1295
10930000	1349
10935000	1336
10940000	1422
10945000	1401
10950000	1352
10955000	1376
10960000	1341
10965000	1370
10970000	1398
10975000	1401
10980000	1384
10985000	1381
10990000	1320
10995000	1385
11000000	1362
11005000	1368
11010000	1378
11015000	1408
11020000	1377
11025000	1338
11030000	1351
11035000	1416
11040000	1372
11045000	1385
11050000	1365
11055000	1485
11060000	1418
11065000	1338
11070000	1309
11075000	1342
11080000	1333
11085000	1315
11090000	1437
11095000	1402
11100000	1366
11105000	1382
11110000	1350
11115000	1349
11120000	1427
11125000	1394
11130000	1404
11135000	1329
11140000	1370
11145000	1371
11150000	1362
11155000	1400
11160000	1443
11165000	1388
11170000	1356
11175000	1402
11180000	1376
11185000	1386
11190000	1380
11195000	1337
11200000	1327
11205000	1449
11210000	1461
11215000	1400
11220000	1367
11225000	1346
11230000	1311
11235000	1374
11240000	1375
11245000	1317
11250000	1352
11255000	1400
11260000	1403
11265000	1314
11270000	1361
11275000	1363
11280000	1376
11285000	1394
11290000	1357
11295000	1442
11300000	1321
11305000	1469
11310000	1416
11315000	1438
11320000	1423
11325000	1439
11330000	1448
11335000	1370
11340000	1479
11345000	1400
11350000	1397
11355000	1430
11360000	1418
11365000	1450
11370000	1392
11375000	1305
11380000	1415
11385000	1393
11390000	1307
11395000	1388
11400000	1371
11405000	1387
11410000	1414
11415000	1424
11420000	1371
11425000	1333
11430000	1319
11435000	1416
11440000	1354
11445000	1445
11450000	1310
11455000	1422
11460000	1339
11465000	1345
11470000	1374
11475000	1313
11480000	1371
11485000	1353
11490000	1422
11495000	1262
11500000	1398
11505000	1366
11510000	1371
11515000	1425
11520000	1333
11525000	1382
11530000	1429
11535000	1362
11540000	1368
11545000	1320
11550000	1365
11555000	1377
11560000	1351
11565000	1358
11570000	1320
11575000	1339
11580000	1466
11585000	1346
11590000	1392
11595000	1351
11600000	1401
11605000	1381
11610000	1381
11615000	1326
11620000	1422
11625000	1374
11630000	1370
11635000	1308
11640000	1285
11645000	1432
11650000	1382
11655000	1336
11660000	1298
11665000	1327
11670000	1393
11675000	1363
11680000	1370
11685000	1383
11690000	1437
11695000	1331
11700000	1322
11705000	1380
11710000	1416
11715000	1300
11720000	1386
11725000	1409
11730000	1388
11735000	1330
11740000	1419
11745000	1338
11750000	1378
11755000	1369
11760000	1416
11765000	1364
11770000	1351
11775000	1447
11780000	1406
11785000	1377
11790000	1390
11795000	1335
11800000	1360
11805000	1410
11810000	1386
11815000	1330
11820000	1377
11825000	1390
11830000	1316
11835000	1378
11840000	1326
11845000	1385
11850000	1355
11855000	1334
11860000	1373
11865000	1437
11870000	1368
11875000	1370
11880000	1436
11885000	1365
11890000	1371
11895000	1372
11900000	1366
11905000	1343
11910000	1376
11915000	1357
11920000	1346
11925000	1379
11930000	1423
11935000	1351
11940000	1354
11945000	1390
11950000	1357
11955000	1411
11960000	1420
11965000	1411
11970000	1406
11975000	1364
11980000	1362
11985000	1455
11990000	1471
11995000	1463
12000000	1483
12005000	1511
12010000	1419
12015000	1431
12020000	1368
12025000	1464
12030000	1465
12035000	1408
12040000	1426
12045000	1381
12050000	1385
12055000	1406
12060000	1406
12065000	1346
12070000	1369
12075000	1380
12080000	1387
12085000	1387
12090000	1388
12095000	1440
12100000	1415
12105000	1357
12110000	1324
12115000	1392
12120000	1338
12125000	1390
12130000	1378
12135000	1382
12140000	1402
12145000	1400
12150000	1369
12155000	1391
12160000	1328
12165000	1423
12170000	1379
12175000	1337
12180000	1408
12185000	1393
12190000	1331
12195000	1341
12200000	1406
12205000	1356
12210000	1387
12215000	1480
12220000	1381
12225000	1343
12230000	1347
12235000	1424
12240000	1344
12245000	1317
12250000	1400
12255000	1381
12260000	1319
12265000	1358
12270000	1374
12275000	1268
12280000	1339
12285000	1328
12290000	1366
12295000	1348
12300000	1274
12305000	1374
12310000	1362
12315000	1358
12320000	1349
12325000	1366
12330000	1314
12335000	1407
12340000	1433
12345000	1339
12350000	1346
12355000	1355
12360000	1334
12365000	1314
12370000	1430
12375000	1296
12380000	1317
12385000	1427
12390000	1379
12395000	1344
12400000	1378
12405000	1323
12410000	1379
12415000	1356
12420000	1361
12425000	1378
12430000	1357
12435000	1338
12440000	1390
12445000	1344
12450000	1392
12455000	1390
12460000	1412
12465000	1419
12470000	1378
12475000	1330
12480000	1376
12485000	1389
12490000	1369
12495000	1390
12500000	1406
12505000	1309
12510000	1336
12515000	1381
12520000	1345
12525000	1327
12530000	1362
12535000	1419
12540000	1304
12545000	1393
12550000	1330
12555000	1397
12560000	1295
12565000	1382
12570000	1426
12575000	1389
12580000	1382
12585000	1351
12590000	1388
12595000	1377
12600000	1372
12605000	1406
12610000	1458
12615000	1358
12620000	1402
12625000	1326
12630000	1333
12635000	1383
12640000	1300
12645000	1323
12650000	1407
12655000	1359
12660000	1367
12665000	1409
12670000	1412
12675000	1410
12680000	1333
12685000	1444
12690000	1561
12695000	1609
12700000	1582
12705000	1538
12710000	1502
12715000	1518
12720000	1507
12725000	1520
12730000	1462
12735000	1427
12740000	1480
12745000	1447
12750000	1371
12755000	1416
12760000	1336
12765000	1419
12770000	1488
12775000	1372
12780000	1486
12785000	1414
12790000	1467
12795000	1461
12800000	1404
12805000	1388
12810000	1383
12815000	1299
12820000	1373
12825000	1384
12830000	1360
12835000	1400
12840000	1389
12845000	1425
12850000	1381
12855000	1371
12860000	1364
12865000	1402
12870000	1379
12875000	1377
12880000	1373
12885000	1392
12890000	1428
12895000	1393
12900000	1301
12905000	1414
12910000	1386
12915000	1344
12920000	1334
12925000	1403
12930000	1407
12935000	1284
12940000	1416
12945000	1335
12950000	1335
12955000	1340
12960000	1373
12965000	1418
12970000	1355
12975000	1455
12980000	1332
12985000	1365
12990000	1258
12995000	1396
13000000	1349
13005000	1288
13010000	1286
13015000	1442
13020000	1376
13025000	1362
13030000	1350
13035000	1333
13040000	1346
13045000	1363
13050000	1376
13055000	1365
13060000	1368
13065000	1319
13070000	1412
13075000	1322
13080000	1413
13085000	1354
13090000	1284
13095000	1380
13100000	1380
13105000	1360
13110000	1337
13115000	1366
13120000	1322
13125000	1354
13130000	1376
13135000	1375
13140000	1330
13145000	1334
13150000	1349
13155000	1324
13160000	1326
13165000	1436
13170000	1361
13175000	1341
13180000	1397
13185000	1357
13190000	1408
13195000	1344
13200000	1387
13205000	1345
13210000	1305
13215000	1353
13220000	1329
13225000	1334
13230000	1352
13235000	1384
13240000	1351
13245000	1311
13250000	1332
13255000	1462
13260000	1410
13265000	1310
13270000	1344
13275000	1316
13280000	1431
13285000	1383
13290000	1340
13295000	1430
13300000	1360
13305000	1300
13310000	1447
13315000	1342
13320000	1362
13325000	1394
13330000	1406
13335000	1435
13340000	1355
13345000	1346
13350000	1347
13355000	1314
13360000	1427
13365000	1312
13370000	1386
13375000	1381
13380000	1327
13385000	1342
13390000	1318
13395000	1398
13400000	1376
13405000	1484
13410000	1528
13415000	1529
13420000	1627
13425000	1539
13430000	1494
13435000	1553
13440000	1442
13445000	1507
13450000	1422
13455000	1466
13460000	1419
13465000	1430
13470000	1425
13475000	1432
13480000	1350
13485000	1442
13490000	1434
13495000	1452
13500000	1422
13505000	1438
13510000	1438
13515000	1443
13520000	1403
13525000	1422
13530000	1417
13535000	1396
13540000	1487
13545000	1345
13550000	1389
13555000	1380
13560000	1378
13565000	1373
13570000	1445
13575000	1382
13580000	1341
13585000	1365
13590000	1312
13595000	1408
13600000	1410
13605000	1415
13610000	1434
13615000	1412
13620000	1373
13625000	1428
13630000	1441
13635000	1372
13640000	1332
13645000	1354
13650000	1454
13655000	1376
13660000	1404
13665000	1324
13670000	1362
13675000	1382
13680000	1347
13685000	1395
13690000	1347
13695000	1396
13700000	1374
13705000	1357
13710000	1288
13715000	1400
13720000	1421
13725000	1338
13730000	1425
13735000	1389
13740000	1341
13745000	1370
13750000	1353
13755000	1363
13760000	1415
13765000	1367
13770000	1339
13775000	1315
13780000	1353
13785000	1421
13790000	1296
13795000	1349
13800000	1298
13805000	1391
13810000	1379
13815000	1390
13820000	1364
13825000	1385
13830000	1387
13835000	1375
13840000	1348
13845000	1323
13850000	1362
13855000	1370
13860000	1348
13865000	1322
13870000	1359
13875000	1356
13880000	1343
13885000	1367
13890000	1372
13895000	1345
13900000	1332
13905000	1372
13910000	1366
13915000	1346
13920000	1389
13925000	1406
13930000	1396
13935000	1405
13940000	1317
13945000	1465
13950000	1331
13955000	1384
13960000	1425
13965000	1357
13970000	1365
13975000	1314
13980000	1371
13985000	1370
13990000	1369
13995000	1359
14000000	1421
14005000	1364
14010000	1412
14015000	1444
14020000	1388
14025000	1394
14030000	1401
14035000	1365
14040000	1373
14045000	1410
14050000	1404
14055000	1305
14060000	1413
14065000	1382
14070000	1396
14075000	1344
14080000	1457
14085000	1431
14090000	1404
14095000	1402
14100000	1361
14105000	1376
14110000	1384
14115000	1389
14120000	1354
14125000	1318
14130000	1384
14135000	1344
14140000	1387
14145000	1554
14150000	1655
14155000	1477
14160000	1584
14165000	1587
14170000	1531
14175000	1479
14180000	1515
14185000	1509
14190000	1516
14195000	1502
14200000	1451
14205000	1444
14210000	1496
14215000	1425
14220000	1413
14225000	1508
14230000	1400
14235000	1426
14240000	1387
14245000	1393
14250000	1395
14255000	1431
14260000	1356
14265000	1370
14270000	1449
14275000	1420
14280000	1393
14285000	1403
14290000	1483
14295000	1363
14300000	1438
14305000	1372
14310000	1318
14315000	1405
14320000	1308
14325000	1356
14330000	1396
14335000	1385
14340000	1378
14345000	1314
14350000	1417
14355000	1304
14360000	1331
14365000	1384
14370000	1397
14375000	1323
14380000	1394
14385000	1400
14390000	1394
14395000	1358
14400000	1349
14405000	1314
14410000	1345
14415000	1427
14420000	1394
14425000	1379
14430000	1316
14435000	1368
14440000	1370
14445000	1299
14450000	1381
14455000	1462
14460000	1352
14465000	1385
14470000	1460
14475000	1352
14480000	1403
14485000	1389
14490000	1359
14495000	1437
14500000	1337
14505000	1330
14510000	1356
14515000	1357
14520000	1360
14525000	1383
14530000	1378
14535000	1400
14540000	1450
14545000	1311
14550000	1283
14555000	1330
14560000	1373
14565000	1395
14570000	1367
14575000	1368
14580000	1306
14585000	1390
14590000	1435
14595000	1406
14600000	1374
14605000	1389
14610000	1364
14615000	1415
14620000	1281
14625000	1395
14630000	1332
14635000	1357
14640000	1371
14645000	1411
14650000	1385
14655000	1421
14660000	1293
14665000	1374
14670000	1383
14675000	1368
14680000	1469
14685000	1337
14690000	1333
14695000	1367
14700000	1372
14705000	1395
14710000	1352
14715000	1374
14720000	1401
14725000	1379
14730000	1386
14735000	1402
14740000	1444
14745000	1430
14750000	1351
14755000	1435
14760000	1409
14765000	1344
14770000	1413
14775000	1359
14780000	1386
14785000	1322
14790000	1354
14795000	1334
14800000	1358
14805000	1313
14810000	1363
14815000	1410
14820000	1390
14825000	1388
14830000	1374
14835000	1395
14840000	1357
14845000	1300
14850000	1439
14855000	1329
14860000	1425
14865000	1382
14870000	1395
14875000	1436
14880000	1373
14885000	1413
14890000	1416
14895000	1406
14900000	1354
14905000	1424
14910000	1528
14915000	1599
14920000	1558
14925000	1533
14930000	1517
14935000	1430
14940000	1567
14945000	1407
14950000	1528
14955000	1442
14960000	1454
14965000	1443
14970000	1462
14975000	1411
14980000	1365
14985000	1417
14990000	1370
14995000	1408
15000000	1328
15005000	1364
15010000	1406
15015000	1432
15020000	1420
15025000	1396
15030000	1378
15035000	1426
15040000	1422
15045000	1408
15050000	1309
15055000	1341
15060000	1369
15065000	1402
15070000	1369
15075000	1414
15080000	1418
15085000	1361
15090000	1402
15095000	1400
15100000	1339
15105000	1358
15110000	1347
15115000	1445
15120000	1421
15125000	1339
15130000	1333
15135000	1398
15140000	1396
15145000	1410
15150000	1368
15155000	1389
15160000	1323
15165000	1387
15170000	1360
15175000	1402
15180000	1352
15185000	1352
15190000	1406
15195000	1348
15200000	1373
15205000	1406
15210000	1381
15215000	1363
15220000	1446
15225000	1381
15230000	1425
15235000	1307
15240000	1343
15245000	1378
15250000	1353
15255000	1386
15260000	1329
15265000	1283
15270000	1359
15275000	1390
15280000	1410
15285000	1390
15290000	1413
15295000	1375
15300000	1408
15305000	1374
15310000	1408
15315000	1362
15320000	1349
15325000	1360
15330000	1324
15335000	1341
15340000	1346
15345000	1343
15350000	1347
15355000	1380
15360000	1367
15365000	1380
15370000	1372
15375000	1404
15380000	1334
15385000	1317
15390000	1414
15395000	1404
15400000	1427
15405000	1354
15410000	1347
15415000	1340
15420000	1360
15425000	1317
15430000	1420
15435000	1313
15440000	1380
15445000	1389
15450000	1365
15455000	1386
15460000	1365
15465000	1393
15470000	1326
15475000	1447
15480000	1410
15485000	1391
15490000	1325
15495000	1378
15500000	1337
15505000	1411
15510000	1309
15515000	1421
15520000	1371
15525000	1326
15530000	1445
15535000	1391
15540000	1409
15545000	1343
15550000	1353
15555000	1357
15560000	1336
15565000	1401
15570000	1376
15575000	1400
15580000	1341
15585000	1379
15590000	1343
15595000	1354
15600000	1348
15605000	1386
15610000	1343
15615000	1374
15620000	1411
15625000	1378
15630000	1416
15635000	1342
15640000	1361
15645000	1355
15650000	1339
15655000	1304
15660000	1299
15665000	1307
15670000	1432
15675000	1365
15680000	1360
15685000	1411
15690000	1469
15695000	1519
15700000	1415
15705000	1502
15710000	1475
15715000	1407
15720000	1397
15725000	1460
15730000	1417
15735000	1435
15740000	1444
15745000	1441
15750000	1510
15755000	1521
15760000	1381
15765000	1357
15770000	1427
15775000	1411
15780000	1375
15785000	1422
15790000	1466
15795000	1419
15800000	1385
15805000	1390
15810000	1376
15815000	1390
15820000	1398
15825000	1399
15830000	1426
15835000	1413
15840000	1378
15845000	1430
15850000	1330
15855000	1372
15860000	1358
15865000	1272
15870000	1352
15875000	1370
15880000	1343
15885000	1350
15890000	1436
15895000	1314
15900000	1356
15905000	1362
15910000	1299
15915000	1426
15920000	1418
15925000	1338
15930000	1380
15935000	1369
15940000	1413
15945000	1384
15950000	1418
15955000	1393
15960000	1401
15965000	1351
15970000	1377
15975000	1389
15980000	1322
15985000	1355
15990000	1409
15995000	1376
16000000	1379
16005000	1309
16010000	1332
16015000	1317
16020000	1393
16025000	1349
16030000	1410
16035000	1407
16040000	1321
16045000	1373
16050000	1352
16055000	1405
16060000	1409
16065000	1435
16070000	1385
16075000	1315
16080000	1314
16085000	1357
16090000	1371
16095000	1374
16100000	1338
16105000	1341
16110000	1343
16115000	1350
16120000	1433
16125000	1399
16130000	1409
16135000	1359
16140000	1321
16145000	1464
16150000	1328
16155000	1361
16160000	1348
16165000	1386
16170000	1427
16175000	1354
16180000	1401
16185000	1379
16190000	1414
16195000	1347
16200000	1358
16205000	1381
16210000	1345
16215000	1358
16220000	1349
16225000	1434
16230000	1369
16235000	1323
16240000	1359
16245000	1338
16250000	1372
16255000	1461
16260000	1402
16265000	1361
16270000	1378
16275000	1424
16280000	1379
16285000	1355
16290000	1357
16295000	1355
16300000	1392
16305000	1314
16310000	1326
16315000	1384
16320000	1417
16325000	1376
16330000	1394
16335000	1369
16340000	1367
16345000	1400
16350000	1376
16355000	1376
16360000	1425
16365000	1336
16370000	1298
16375000	1376
16380000	1313
16385000	1411
16390000	1338
16395000	1336
16400000	1369
16405000	1310
16410000	1348
16415000	1425
16420000	1375
16425000	1298
16430000	1392
16435000	1320
16440000	1379
16445000	1324
16450000	1361
16455000	1370
16460000	1414
16465000	1306
16470000	1381
16475000	1405
16480000	1312
16485000	1399
16490000	1362
16495000	1418
16500000	1370
16505000	1475
16510000	1464
16515000	1372
16520000	1413
16525000	1401
16530000	1468
16535000	1372
16540000	1385
16545000	1355
16550000	1430
16555000	1285
16560000	1362
16565000	1323
16570000	1394
16575000	1381
16580000	1415
16585000	1455
16590000	1341
16595000	1336
16600000	1348
16605000	1378
16610000	1305
16615000	1448
16620000	1410
16625000	1363
16630000	1401
16635000	1403
16640000	1377
16645000	1437
16650000	1377
16655000	1392
16660000	1424
16665000	1423
16670000	1453
16675000	1353
16680000	1313
16685000	1338
16690000	1415
16695000	1425
16700000	1379
16705000	1389
16710000	1304
16715000	1373
16720000	1434
16725000	1306
16730000	1272
16735000	1313
16740000	1323
16745000	1419
16750000	1311
16755000	1452
16760000	1334
16765000	1383
16770000	1369
16775000	1337
16780000	1400
16785000	1401
16790000	1411
16795000	1382
16800000	1365
16805000	1360
16810000	1354
16815000	1389
16820000	1333
16825000	1327
16830000	1297
16835000	1303
16840000	1440
16845000	1356
16850000	1382
16855000	1408
16860000	1325
16865000	1350
16870000	1341
16875000	1354
16880000	1379
16885000	1337
16890000	1294
16895000	1369
16900000	1345
16905000	1340
16910000	1388
16915000	1281
16920000	1390
16925000	1404
16930000	1384
16935000	1363
16940000	1382
16945000	1333
16950000	1419
16955000	1358
16960000	1434
16965000	1386
16970000	1316
16975000	1392
16980000	1334
16985000	1388
16990000	1380
16995000	1305
17000000	1362
17005000	1348
17010000	1364
17015000	1354
17020000	1423
17025000	1285
17030000	1343
17035000	1327
17040000	1332
17045000	1406
17050000	1372
17055000	1370
17060000	1401
17065000	1350
17070000	1376
17075000	1352
17080000	1395
17085000	1372
17090000	1316
17095000	1423
17100000	1479
17105000	1357
17110000	1401
17115000	1289
17120000	1374
17125000	1312
17130000	1314
17135000	1344
17140000	1361
17145000	1333
17150000	1371
17155000	1327
17160000	1366
17165000	1340
17170000	1408
17175000	1376
17180000	1404
17185000	1326
17190000	1365
17195000	1382
17200000	1424
17205000	1345
17210000	1370
17215000	1336
17220000	1359
17225000	1371
17230000	1388
17235000	1398
17240000	1354
17245000	1289
17250000	1391
17255000	1289
17260000	1315
17265000	1388
17270000	1366
17275000	1328
17280000	1349
17285000	1404
17290000	1360
17295000	1390
17300000	1407
17305000	1461
17310000	1513
17315000	1526
17320000	1383
17325000	1498
17330000	1478
17335000	1423
17340000	1384
17345000	1428
17350000	1450
17355000	1382
17360000	1405
17365000	1366
17370000	1474
17375000	1395
17380000	1351
17385000	1369
17390000	1364
17395000	1436
17400000	1333
17405000	1392
17410000	1389
17415000	1435
17420000	1369
17425000	1421
17430000	1555
17435000	1563
17440000	1563
17445000	1553
17450000	1500
17455000	1475
17460000	1536
17465000	1511
17470000	1562
17475000	1491
17480000	1463
17485000	1472
17490000	1502
17495000	1488
17500000	1501
17505000	1545
17510000	1434
17515000	1356
17520000	1443
17525000	1421
17530000	1373
17535000	1404
17540000	1367
17545000	1480
17550000	1508
17555000	1521
17560000	1564
17565000	1495
17570000	1422
17575000	1495
17580000	1487
17585000	1425
17590000	1430
17595000	1441
17600000	1463
17605000	1505
17610000	1390
17615000	1348
17620000	1416
17625000	1449
17630000	1618
17635000	1606
17640000	1550
17645000	1505
17650000	1563
17655000	1455
17660000	1525
17665000	1493
17670000	1423
17675000	1421
17680000	1463
17685000	1441
17690000	1442
17695000	1386
17700000	1449
17705000	1450
17710000	1371
17715000	1433
17720000	1429
17725000	1390
17730000	1605
17735000	1601
17740000	1620
17745000	1536
17750000	1545
17755000	1546
17760000	1483
17765000	1486
17770000	1502
17775000	1457
17780000	1380
17785000	1460
17790000	1493
17795000	1468
17800000	1434
17805000	1427
17810000	1403
17815000	1456
17820000	1360
17825000	1452
17830000	1342
17835000	1361
17840000	1437
17845000	1413
17850000	1528
17855000	1640
17860000	1567
17865000	1593
17870000	1584
17875000	1468
17880000	1504
17885000	1440
17890000	1475
17895000	1494
17900000	1480
17905000	1404
17910000	1460
17915000	1446
17920000	1445
17925000	1425
17930000	1421
17935000	1461
17940000	1433
17945000	1449
17950000	1385
17955000	1317
17960000	1357
17965000	1382
17970000	1389
17975000	1391
17980000	1402
17985000	1356
17990000	1577
17995000	1484
18000000	1473
18005000	1529
18010000	1573
18015000	1519
18020000	1467
18025000	1461
18030000	1441
18035000	1414
18040000	1419
18045000	1482
18050000	1429
18055000	1403
18060000	1446
18065000	1420
18070000	1451
18075000	1419
18080000	1419
18085000	1370
18090000	1482
18095000	1419
18100000	1368
18105000	1416
18110000	1423
18115000	1396
18120000	1402
18125000	1369
18130000	1368
18135000	1409
18140000	1435
18145000	1359
18150000	1456
18155000	1476
18160000	1497
18165000	1449
18170000	1544
18175000	1461
18180000	1390
18185000	1432
18190000	1423
18195000	1398
18200000	1436
18205000	1354
18210000	1424
18215000	1394
18220000	1384
18225000	1423
18230000	1405
18235000	1387
18240000	1364
18245000	1378
18250000	1361
18255000	1406
18260000	1414
18265000	1376
18270000	1423
18275000	1423
18280000	1388
18285000	1476
18290000	1319
18295000	1438
18300000	1413
18305000	1395
18310000	1347
18315000	1347
18320000	1398
18325000	1340
18330000	1463
18335000	1411
18340000	1438
18345000	1475
18350000	1454
18355000	1331
18360000	1470
18365000	1456
18370000	1393
18375000	1425
18380000	1356
18385000	1338
18390000	1347
18395000	1435
18400000	1393
18405000	1358
18410000	1328
18415000	1354
18420000	1388
18425000	1319
18430000	1422
18435000	1365
18440000	1393
18445000	1302
18450000	1400
18455000	1460
18460000	1393
18465000	1418
18470000	1393
18475000	1402
18480000	1320
18485000	1382
18490000	1410
18495000	1395
18500000	1280
18505000	1393
18510000	1357
18515000	1356
18520000	1417
18525000	1339
18530000	1435
18535000	1358
18540000	1390
18545000	1356
18550000	1316
18555000	1417
18560000	1396
18565000	1326
18570000	1394
18575000	1302
18580000	1426
18585000	1333
18590000	1389
18595000	1392
18600000	1419
18605000	1366
18610000	1349
18615000	1418
18620000	1458
18625000	1387
18630000	1319
18635000	1354
18640000	1407
18645000	1380
18650000	1448
18655000	1446
18660000	1328
18665000	1397
18670000	1392
18675000	1364
18680000	1410
18685000	1377
18690000	1413
18695000	1376
18700000	1311
18705000	1384
18710000	1396
18715000	1362
18720000	1390
18725000	1409
18730000	1426
18735000	1351
18740000	1368
18745000	1388
18750000	1317
18755000	1362
18760000	1365
18765000	1321
18770000	1371
18775000	1348
18780000	1394
18785000	1330
18790000	1391
18795000	1428
18800000	1372
18805000	1458
18810000	1372
18815000	1468
18820000	1348
18825000	1315
18830000	1401
18835000	1381
18840000	1443
18845000	1400
18850000	1365
18855000	1380
18860000	1378
18865000	1354
18870000	1333
18875000	1381
18880000	1377
18885000	1388
18890000	1325
18895000	1364
18900000	1317
18905000	1419
18910000	1382
18915000	1364
18920000	1310
18925000	1437
18930000	1339
18935000	1351
18940000	1330
18945000	1361
18950000	1353
18955000	1392
18960000	1441
18965000	1345
18970000	1321
18975000	1329
18980000	1391
18985000	1494
18990000	1364
18995000	1477
19000000	1393
19005000	1387
19010000	1380
19015000	1397
19020000	1387
19025000	1432
19030000	1355
19035000	1403
19040000	1355
19045000	1420
19050000	1386
19055000	1393
19060000	1405
19065000	1352
19070000	1456
19075000	1383
19080000	1365
19085000	1319
19090000	1388
19095000	1385
19100000	1319
19105000	1375
19110000	1312
19115000	1414
19120000	1384
19125000	1337
19130000	1425
19135000	1342
19140000	1385
19145000	1376
19150000	1414
19155000	1271
19160000	1327
19165000	1385
19170000	1380
19175000	1407
19180000	1358
19185000	1328
19190000	1393
19195000	1395
19200000	1414
19205000	1404
19210000	1413
19215000	1385
19220000	1374
19225000	1400
19230000	1308
19235000	1426
19240000	1358
19245000	1451
19250000	1498
19255000	1538
19260000	1442
19265000	1428
19270000	1444
19275000	1414
19280000	1412
19285000	1405
19290000	1399
19295000	1378
19300000	1402
19305000	1410
19310000	1309
19315000	1397
19320000	1407
19325000	1391
19330000	1358
19335000	1434
19340000	1409
19345000	1391
19350000	1403
19355000	1404
19360000	1419
19365000	1358
19370000	1378
19375000	1404
19380000	1379
19385000	1445
19390000	1335
19395000	1393
19400000	1410
19405000	1336
19410000	1409
19415000	1356
19420000	1369
19425000	1422
19430000	1452
19435000	1359
19440000	1346
19445000	1361
19450000	1401
19455000	1439
19460000	1372
19465000	1350
19470000	1407
19475000	1428
19480000	1417
19485000	1336
19490000	1410
19495000	1356
19500000	1385
19505000	1373
19510000	1377
19515000	1402
19520000	1387
19525000	1488
19530000	1471
19535000	1548
19540000	1492
19545000	1545
19550000	1498
19555000	1483
19560000	1497
19565000	1422
19570000	1400
19575000	1395
19580000	1412
19585000	1394
19590000	1428
19595000	1435
19600000	1415
19605000	1401
19610000	1408
19615000	1422
19620000	1365
19625000	1449
19630000	1332
19635000	1340
19640000	1370
19645000	1436
19650000	1368
19655000	1349
19660000	1337
19665000	1449
19670000	1409
19675000	1364
19680000	1438
19685000	1426
19690000	1399
19695000	1351
19700000	1419
19705000	1384
19710000	1394
19715000	1358
19720000	1434
19725000	1438
19730000	1434
19735000	1373
19740000	1460
19745000	1376
19750000	1396
19755000	1361
19760000	1350
19765000	1355
19770000	1438
19775000	1379
19780000	1332
19785000	1391
19790000	1361
19795000	1390
19800000	1347
19805000	1347
19810000	1321
19815000	1348
19820000	1446
19825000	1461
19830000	1575
19835000	1591
19840000	1508
19845000	1563
19850000	1512
19855000	1510
19860000	1479
19865000	1515
19870000	1492
19875000	1480
19880000	1417
19885000	1408
19890000	1467
19895000	1454
19900000	1364
19905000	1379
19910000	1425
19915000	1401
19920000	1406
19925000	1385
19930000	1422
19935000	1374
19940000	1388
19945000	1450
19950000	1391
19955000	1432
19960000	1384
19965000	1352
19970000	1401
19975000	1340
19980000	1396
19985000	1411
19990000	1318
19995000	1303
